# Pulseq sequence file
# Created by PyPulseq

[VERSION]
major 1
minor 4
revision 0

[DEFINITIONS]
AdcRasterTime 1e-07 
BlockDurationRaster 1e-05 
FOV 0.3 0.3 0.005 
GradientRasterTime 1e-05 
Name se2d 
RadiofrequencyRasterTime 1e-06 
TotalDuration 256 

# Format of blocks:
# NUM DUR RF  GX  GY  GZ  ADC  EXT
[BLOCKS]
   1 276   1   0   0   1  0  0
   2  52   0   4   3   2  0  0
   3 3164   0   5   5   5  0  0
   4 284   2   0   0   6  0  0
   5  52   0   7   7   7  0  0
   6 3505   0   8   0   0  1  0
   7  52   0   0   3   2  0  0
   8 192615   0   0   0   0  0  0
   9 276   1   0   0   1  0  0
  10  52   0   4   9   2  0  0
  11 3164   0   5   5   5  0  0
  12 284   2   0   0   6  0  0
  13  52   0   7   7   7  0  0
  14 3505   0   8   0   0  1  0
  15  52   0   0   9   2  0  0
  16 192615   0   0   0   0  0  0
  17 276   1   0   0   1  0  0
  18  52   0   4  10   2  0  0
  19 3164   0   5   5   5  0  0
  20 284   2   0   0   6  0  0
  21  52   0   7   7   7  0  0
  22 3505   0   8   0   0  1  0
  23  52   0   0  10   2  0  0
  24 192615   0   0   0   0  0  0
  25 276   1   0   0   1  0  0
  26  52   0   4  11   2  0  0
  27 3164   0   5   5   5  0  0
  28 284   2   0   0   6  0  0
  29  52   0   7   7   7  0  0
  30 3505   0   8   0   0  1  0
  31  52   0   0  11   2  0  0
  32 192615   0   0   0   0  0  0
  33 276   1   0   0   1  0  0
  34  52   0   4  12   2  0  0
  35 3164   0   5   5   5  0  0
  36 284   2   0   0   6  0  0
  37  52   0   7   7   7  0  0
  38 3505   0   8   0   0  1  0
  39  52   0   0  12   2  0  0
  40 192615   0   0   0   0  0  0
  41 276   1   0   0   1  0  0
  42  52   0   4  13   2  0  0
  43 3164   0   5   5   5  0  0
  44 284   2   0   0   6  0  0
  45  52   0   7   7   7  0  0
  46 3505   0   8   0   0  1  0
  47  52   0   0  13   2  0  0
  48 192615   0   0   0   0  0  0
  49 276   1   0   0   1  0  0
  50  52   0   4  14   2  0  0
  51 3164   0   5   5   5  0  0
  52 284   2   0   0   6  0  0
  53  52   0   7   7   7  0  0
  54 3505   0   8   0   0  1  0
  55  52   0   0  14   2  0  0
  56 192615   0   0   0   0  0  0
  57 276   1   0   0   1  0  0
  58  52   0   4  15   2  0  0
  59 3164   0   5   5   5  0  0
  60 284   2   0   0   6  0  0
  61  52   0   7   7   7  0  0
  62 3505   0   8   0   0  1  0
  63  52   0   0  15   2  0  0
  64 192615   0   0   0   0  0  0
  65 276   1   0   0   1  0  0
  66  52   0   4  16   2  0  0
  67 3164   0   5   5   5  0  0
  68 284   2   0   0   6  0  0
  69  52   0   7   7   7  0  0
  70 3505   0   8   0   0  1  0
  71  52   0   0  16   2  0  0
  72 192615   0   0   0   0  0  0
  73 276   1   0   0   1  0  0
  74  52   0   4  17   2  0  0
  75 3164   0   5   5   5  0  0
  76 284   2   0   0   6  0  0
  77  52   0   7   7   7  0  0
  78 3505   0   8   0   0  1  0
  79  52   0   0  17   2  0  0
  80 192615   0   0   0   0  0  0
  81 276   1   0   0   1  0  0
  82  52   0   4  18   2  0  0
  83 3164   0   5   5   5  0  0
  84 284   2   0   0   6  0  0
  85  52   0   7   7   7  0  0
  86 3505   0   8   0   0  1  0
  87  52   0   0  18   2  0  0
  88 192615   0   0   0   0  0  0
  89 276   1   0   0   1  0  0
  90  52   0   4  19   2  0  0
  91 3164   0   5   5   5  0  0
  92 284   2   0   0   6  0  0
  93  52   0   7   7   7  0  0
  94 3505   0   8   0   0  1  0
  95  52   0   0  19   2  0  0
  96 192615   0   0   0   0  0  0
  97 276   1   0   0   1  0  0
  98  52   0   4  20   2  0  0
  99 3164   0   5   5   5  0  0
 100 284   2   0   0   6  0  0
 101  52   0   7   7   7  0  0
 102 3505   0   8   0   0  1  0
 103  52   0   0  20   2  0  0
 104 192615   0   0   0   0  0  0
 105 276   1   0   0   1  0  0
 106  52   0   4  21   2  0  0
 107 3164   0   5   5   5  0  0
 108 284   2   0   0   6  0  0
 109  52   0   7   7   7  0  0
 110 3505   0   8   0   0  1  0
 111  52   0   0  21   2  0  0
 112 192615   0   0   0   0  0  0
 113 276   1   0   0   1  0  0
 114  52   0   4  22   2  0  0
 115 3164   0   5   5   5  0  0
 116 284   2   0   0   6  0  0
 117  52   0   7   7   7  0  0
 118 3505   0   8   0   0  1  0
 119  52   0   0  22   2  0  0
 120 192615   0   0   0   0  0  0
 121 276   1   0   0   1  0  0
 122  52   0   4  23   2  0  0
 123 3164   0   5   5   5  0  0
 124 284   2   0   0   6  0  0
 125  52   0   7   7   7  0  0
 126 3505   0   8   0   0  1  0
 127  52   0   0  23   2  0  0
 128 192615   0   0   0   0  0  0
 129 276   1   0   0   1  0  0
 130  52   0   4  24   2  0  0
 131 3164   0   5   5   5  0  0
 132 284   2   0   0   6  0  0
 133  52   0   7   7   7  0  0
 134 3505   0   8   0   0  1  0
 135  52   0   0  24   2  0  0
 136 192615   0   0   0   0  0  0
 137 276   1   0   0   1  0  0
 138  52   0   4  25   2  0  0
 139 3164   0   5   5   5  0  0
 140 284   2   0   0   6  0  0
 141  52   0   7   7   7  0  0
 142 3505   0   8   0   0  1  0
 143  52   0   0  25   2  0  0
 144 192615   0   0   0   0  0  0
 145 276   1   0   0   1  0  0
 146  52   0   4  26   2  0  0
 147 3164   0   5   5   5  0  0
 148 284   2   0   0   6  0  0
 149  52   0   7   7   7  0  0
 150 3505   0   8   0   0  1  0
 151  52   0   0  26   2  0  0
 152 192615   0   0   0   0  0  0
 153 276   1   0   0   1  0  0
 154  52   0   4  27   2  0  0
 155 3164   0   5   5   5  0  0
 156 284   2   0   0   6  0  0
 157  52   0   7   7   7  0  0
 158 3505   0   8   0   0  1  0
 159  52   0   0  27   2  0  0
 160 192615   0   0   0   0  0  0
 161 276   1   0   0   1  0  0
 162  52   0   4  28   2  0  0
 163 3164   0   5   5   5  0  0
 164 284   2   0   0   6  0  0
 165  52   0   7   7   7  0  0
 166 3505   0   8   0   0  1  0
 167  52   0   0  28   2  0  0
 168 192615   0   0   0   0  0  0
 169 276   1   0   0   1  0  0
 170  52   0   4  29   2  0  0
 171 3164   0   5   5   5  0  0
 172 284   2   0   0   6  0  0
 173  52   0   7   7   7  0  0
 174 3505   0   8   0   0  1  0
 175  52   0   0  29   2  0  0
 176 192615   0   0   0   0  0  0
 177 276   1   0   0   1  0  0
 178  52   0   4  30   2  0  0
 179 3164   0   5   5   5  0  0
 180 284   2   0   0   6  0  0
 181  52   0   7   7   7  0  0
 182 3505   0   8   0   0  1  0
 183  52   0   0  30   2  0  0
 184 192615   0   0   0   0  0  0
 185 276   1   0   0   1  0  0
 186  52   0   4  31   2  0  0
 187 3164   0   5   5   5  0  0
 188 284   2   0   0   6  0  0
 189  52   0   7   7   7  0  0
 190 3505   0   8   0   0  1  0
 191  52   0   0  31   2  0  0
 192 192615   0   0   0   0  0  0
 193 276   1   0   0   1  0  0
 194  52   0   4  32   2  0  0
 195 3164   0   5   5   5  0  0
 196 284   2   0   0   6  0  0
 197  52   0   7   7   7  0  0
 198 3505   0   8   0   0  1  0
 199  52   0   0  32   2  0  0
 200 192615   0   0   0   0  0  0
 201 276   1   0   0   1  0  0
 202  52   0   4  33   2  0  0
 203 3164   0   5   5   5  0  0
 204 284   2   0   0   6  0  0
 205  52   0   7   7   7  0  0
 206 3505   0   8   0   0  1  0
 207  52   0   0  33   2  0  0
 208 192615   0   0   0   0  0  0
 209 276   1   0   0   1  0  0
 210  52   0   4  34   2  0  0
 211 3164   0   5   5   5  0  0
 212 284   2   0   0   6  0  0
 213  52   0   7   7   7  0  0
 214 3505   0   8   0   0  1  0
 215  52   0   0  34   2  0  0
 216 192615   0   0   0   0  0  0
 217 276   1   0   0   1  0  0
 218  52   0   4  35   2  0  0
 219 3164   0   5   5   5  0  0
 220 284   2   0   0   6  0  0
 221  52   0   7   7   7  0  0
 222 3505   0   8   0   0  1  0
 223  52   0   0  35   2  0  0
 224 192615   0   0   0   0  0  0
 225 276   1   0   0   1  0  0
 226  52   0   4  36   2  0  0
 227 3164   0   5   5   5  0  0
 228 284   2   0   0   6  0  0
 229  52   0   7   7   7  0  0
 230 3505   0   8   0   0  1  0
 231  52   0   0  36   2  0  0
 232 192615   0   0   0   0  0  0
 233 276   1   0   0   1  0  0
 234  52   0   4  37   2  0  0
 235 3164   0   5   5   5  0  0
 236 284   2   0   0   6  0  0
 237  52   0   7   7   7  0  0
 238 3505   0   8   0   0  1  0
 239  52   0   0  37   2  0  0
 240 192615   0   0   0   0  0  0
 241 276   1   0   0   1  0  0
 242  52   0   4  38   2  0  0
 243 3164   0   5   5   5  0  0
 244 284   2   0   0   6  0  0
 245  52   0   7   7   7  0  0
 246 3505   0   8   0   0  1  0
 247  52   0   0  38   2  0  0
 248 192615   0   0   0   0  0  0
 249 276   1   0   0   1  0  0
 250  52   0   4  39   2  0  0
 251 3164   0   5   5   5  0  0
 252 284   2   0   0   6  0  0
 253  52   0   7   7   7  0  0
 254 3505   0   8   0   0  1  0
 255  52   0   0  39   2  0  0
 256 192615   0   0   0   0  0  0
 257 276   1   0   0   1  0  0
 258  52   0   4  40   2  0  0
 259 3164   0   5   5   5  0  0
 260 284   2   0   0   6  0  0
 261  52   0   7   7   7  0  0
 262 3505   0   8   0   0  1  0
 263  52   0   0  40   2  0  0
 264 192615   0   0   0   0  0  0
 265 276   1   0   0   1  0  0
 266  52   0   4  41   2  0  0
 267 3164   0   5   5   5  0  0
 268 284   2   0   0   6  0  0
 269  52   0   7   7   7  0  0
 270 3505   0   8   0   0  1  0
 271  52   0   0  41   2  0  0
 272 192615   0   0   0   0  0  0
 273 276   1   0   0   1  0  0
 274  52   0   4  42   2  0  0
 275 3164   0   5   5   5  0  0
 276 284   2   0   0   6  0  0
 277  52   0   7   7   7  0  0
 278 3505   0   8   0   0  1  0
 279  52   0   0  42   2  0  0
 280 192615   0   0   0   0  0  0
 281 276   1   0   0   1  0  0
 282  52   0   4  43   2  0  0
 283 3164   0   5   5   5  0  0
 284 284   2   0   0   6  0  0
 285  52   0   7   7   7  0  0
 286 3505   0   8   0   0  1  0
 287  52   0   0  43   2  0  0
 288 192615   0   0   0   0  0  0
 289 276   1   0   0   1  0  0
 290  52   0   4  44   2  0  0
 291 3164   0   5   5   5  0  0
 292 284   2   0   0   6  0  0
 293  52   0   7   7   7  0  0
 294 3505   0   8   0   0  1  0
 295  52   0   0  44   2  0  0
 296 192615   0   0   0   0  0  0
[RF]
1       553.96 2 3 4 100 0 0
2      1107.92 2 3 4 180 0 0

# Format of arbitrary gradients:
#   time_shape_id of 0 means default timing (stepping with grad_raster starting at 1/2 of grad_raster)
# id amplitude amp_shape_id time_shape_id delay
# ..      Hz/m       ..         ..          us
[GRADIENTS]
1       210756 1 0 0
2      -934565 5 0 0
3      -927706 6 0 0
4      -934991 7 0 0
5       934991 5 0 31120
6       210756 1 0 80
7       934991 5 0 0
8      -111126 8 0 31150
9      -913323 9 0 0
10      -898940 10 0 0
11      -884557 11 0 0
12      -870174 12 0 0
13      -855791 13 0 0
14      -841408 9 0 0
15      -827025 14 0 0
16      -812642 15 0 0
17      -798259 16 0 0
18      -783876 9 0 0
19      -769493 17 0 0
20      -755110 18 0 0
21      -740727 19 0 0
22      -726344 20 0 0
23      -711961 21 0 0
24      -697578 22 0 0
25      -683195 23 0 0
26      -668811 24 0 0
27      -654428 25 0 0
28      -640045 26 0 0
29      -625662 27 0 0
30      -611279 28 0 0
31      -596896 29 0 0
32      -582513 30 0 0
33      -568130 31 0 0
34      -553747 9 0 0
35      -539364 9 0 0
36      -524981 9 0 0
37      -510598 9 0 0
38      -496215 9 0 0
39      -481832 32 0 0
40      -467449 33 0 0
41      -453066 34 0 0
42      -438683 35 0 0
43      -424300 31 0 0
44      -409917 36 0 0
45      -395534 37 0 0
46      -381151 19 0 0
47      -366768 38 0 0
48      -352385 39 0 0
49      -338002 33 0 0
50      -323618 40 0 0
51      -309235 41 0 0
52      -294852 11 0 0
53      -280469 9 0 0
54      -266086 9 0 0
55      -251703 42 0 0
56      -237320 21 0 0
57      -222937 25 0 0
58      -208554 43 0 0
59      -194171 44 0 0
60      -179788 45 0 0
61      -165405 26 0 0
62      -151022 30 0 0
63      -136639 9 0 0
64      -122256 10 0 0
65      -107873 46 0 0
66     -93489.8 47 0 0
67     -79106.7 48 0 0
68     -64723.7 9 0 0
69     -50340.6 49 0 0
70     -35957.6 50 0 0
71     -21574.6 51 0 0
72     -7191.52 9 0 0
73      7191.52 9 0 0
74      21574.6 51 0 0
75      35957.6 50 0 0
76      50340.6 49 0 0
77      64723.7 9 0 0
78      79106.7 48 0 0
79      93489.8 47 0 0
80       107873 46 0 0
81       122256 10 0 0
82       136639 9 0 0
83       151022 30 0 0
84       165405 26 0 0
85       179788 45 0 0
86       194171 44 0 0
87       208554 43 0 0
88       222937 25 0 0
89       237320 21 0 0
90       251703 42 0 0
91       266086 9 0 0
92       280469 9 0 0
93       294852 11 0 0
94       309235 41 0 0
95       323618 40 0 0
96       338002 33 0 0
97       352385 39 0 0
98       366768 38 0 0
99       381151 19 0 0
100       395534 37 0 0
101       409917 36 0 0
102       424300 31 0 0
103       438683 35 0 0
104       453066 34 0 0
105       467449 33 0 0
106       481832 32 0 0
107       496215 9 0 0
108       510598 9 0 0
109       524981 9 0 0
110       539364 9 0 0
111       553747 9 0 0
112       568130 31 0 0
113       582513 30 0 0
114       596896 29 0 0
115       611279 28 0 0
116       625662 27 0 0
117       640045 26 0 0
118       654428 25 0 0
119       668811 24 0 0
120       683195 23 0 0
121       697578 22 0 0
122       711961 21 0 0
123       726344 20 0 0
124       740727 19 0 0
125       755110 18 0 0
126       769493 17 0 0
127       783876 9 0 0
128       798259 16 0 0
129       812642 15 0 0
130       827025 14 0 0
131       841408 9 0 0
132       855791 13 0 0
133       870174 12 0 0
134       884557 11 0 0
135       898940 10 0 0

# Format of ADC events:
# id num dwell delay freq phase
# ..  ..    ns    us   Hz   rad
[ADC]
1 128 30000 31180 0 0

# Sequence Shapes
[SHAPES]

shape_id 1
num_samples 276
0
0.1
0.1
8
0
0
253
-0.1
-0.1
8

shape_id 2
num_samples 64
3.13408678e-05
0.000741999828
0.00221394946
0.00410794205
0.00596111101
0.00720032491
0.00716193209
0.00511722915
0.000302691099
0.00804617742
0.0206588
0.0381929564
0.0611988404
0.0900858887
0.125093781
0.166268534
0.213447291
0.266245926
0.324062237
0.386079951
0.45128873
0.518508182
0.586416863
0.653595301
0.718566001
0.779842467
0.835977216
0.885606793
0.927504787
0.960613845
0.984091687
0.99733411
1
0.992020335
0.973600182
0.945215702
0.907593136
0.861685803
0.808640086
0.749758419
0.686450274
0.620189143
0.552463523
0.484726899
0.418355731
0.354604438
0.294573388
0.239176885
0.189126168
0.144915402
0.106816677
0.0748879126
0.0489826602
0.0287734103
0.0137763013
0.00338310996
0.00310435686
0.00643765018
0.00738518665
0.00669709683
0.00507307441
0.00313434687
0.00140100794
0.000275365972

shape_id 3
num_samples 64
0
0
62

shape_id 4
num_samples 64
10
20
20
61

shape_id 5
num_samples 52
0
0.0455
0.0454
0.0455
0.0454
0.0455
0.0454
0.0455
0.0454
0.0455
0.0454
0.0455
0.0455
0
0.0454
0.0455
0.0454
0.0455
0.0454
0.0455
0.0454
0.0455
0.0454
0.0455
0
0
5
-0.0455
-0.0454
-0.0455
-0.0454
-0.0455
-0.0454
-0.0455
-0.0454
-0.0455
-0.0454
-0.0455
-0.0455
0
-0.0454
-0.0455
-0.0454
-0.0455
-0.0454
-0.0455
-0.0454
-0.0455
-0.0454
-0.0455

shape_id 6
num_samples 45
0
0.0455
0.0909
0.1364
0.1818
0.2273
0.2727
0.3182
0.3636
0.4091
0.4545
0.5
0.5455
0.5909
0.6364
0.6818
0.7273
0.7727
0.8182
0.8636
0.9091
0.9545
1
0.9545
0.9091
0.8636
0.8182
0.7727
0.7273
0.6818
0.6364
0.5909
0.5455
0.5
0.4545
0.4091
0.3636
0.3182
0.2727
0.2273
0.1818
0.1364
0.0909
0.0455
0

shape_id 7
num_samples 45
0
0.0455
0.0909
0.1364
0.1818
0.2273
0.2727
0.3182
0.3636
0.4091
0.4545
0.5
0.5455
0.5909
0.6364
0.6818
0.7273
0.7727
0.8182
0.8636
0.9091
0.9545
1
0.9545
0.9091
0.8636
0.8182
0.7727
0.7273
0.6818
0.6364
0.5909
0.5455
0.5
0.4545
0.4091
0.3636
0.3182
0.2727
0.2273
0.1818
0.1364
0.0909
0.0455
0

shape_id 8
num_samples 390
0
0.3333
0.3334
0.3333
0
0
381
-0.3333
-0.3334
-0.3333

shape_id 9
num_samples 45
0
0.0455
0.0909
0.1364
0.1818
0.2273
0.2727
0.3182
0.3636
0.4091
0.4545
0.5
0.5455
0.5909
0.6364
0.6818
0.7273
0.7727
0.8182
0.8636
0.9091
0.9545
1
0.9545
0.9091
0.8636
0.8182
0.7727
0.7273
0.6818
0.6364
0.5909
0.5455
0.5
0.4545
0.4091
0.3636
0.3182
0.2727
0.2273
0.1818
0.1364
0.0909
0.0455
0

shape_id 10
num_samples 45
0
0.0455
0.0909
0.1364
0.1818
0.2273
0.2727
0.3182
0.3636
0.4091
0.4545
0.5
0.5455
0.5909
0.6364
0.6818
0.7273
0.7727
0.8182
0.8636
0.9091
0.9545
1
0.9545
0.9091
0.8636
0.8182
0.7727
0.7273
0.6818
0.6364
0.5909
0.5455
0.5
0.4545
0.4091
0.3636
0.3182
0.2727
0.2273
0.1818
0.1364
0.0909
0.0455
0

shape_id 11
num_samples 45
0
0.0455
0.0909
0.1364
0.1818
0.2273
0.2727
0.3182
0.3636
0.4091
0.4545
0.5
0.5455
0.5909
0.6364
0.6818
0.7273
0.7727
0.8182
0.8636
0.9091
0.9545
1
0.9545
0.9091
0.8636
0.8182
0.7727
0.7273
0.6818
0.6364
0.5909
0.5455
0.5
0.4545
0.4091
0.3636
0.3182
0.2727
0.2273
0.1818
0.1364
0.0909
0.0455
0

shape_id 12
num_samples 45
0
0.0455
0.0909
0.1364
0.1818
0.2273
0.2727
0.3182
0.3636
0.4091
0.4545
0.5
0.5455
0.5909
0.6364
0.6818
0.7273
0.7727
0.8182
0.8636
0.9091
0.9545
1
0.9545
0.9091
0.8636
0.8182
0.7727
0.7273
0.6818
0.6364
0.5909
0.5455
0.5
0.4545
0.4091
0.3636
0.3182
0.2727
0.2273
0.1818
0.1364
0.0909
0.0455
0

shape_id 13
num_samples 45
0
0.0455
0.0909
0.1364
0.1818
0.2273
0.2727
0.3182
0.3636
0.4091
0.4545
0.5
0.5455
0.5909
0.6364
0.6818
0.7273
0.7727
0.8182
0.8636
0.9091
0.9545
1
0.9545
0.9091
0.8636
0.8182
0.7727
0.7273
0.6818
0.6364
0.5909
0.5455
0.5
0.4545
0.4091
0.3636
0.3182
0.2727
0.2273
0.1818
0.1364
0.0909
0.0455
0

shape_id 14
num_samples 45
0
0.0455
0.0909
0.1364
0.1818
0.2273
0.2727
0.3182
0.3636
0.4091
0.4545
0.5
0.5455
0.5909
0.6364
0.6818
0.7273
0.7727
0.8182
0.8636
0.9091
0.9545
1
0.9545
0.9091
0.8636
0.8182
0.7727
0.7273
0.6818
0.6364
0.5909
0.5455
0.5
0.4545
0.4091
0.3636
0.3182
0.2727
0.2273
0.1818
0.1364
0.0909
0.0455
0

shape_id 15
num_samples 45
0
0.0455
0.0909
0.1364
0.1818
0.2273
0.2727
0.3182
0.3636
0.4091
0.4545
0.5
0.5455
0.5909
0.6364
0.6818
0.7273
0.7727
0.8182
0.8636
0.9091
0.9545
1
0.9545
0.9091
0.8636
0.8182
0.7727
0.7273
0.6818
0.6364
0.5909
0.5455
0.5
0.4545
0.4091
0.3636
0.3182
0.2727
0.2273
0.1818
0.1364
0.0909
0.0455
0

shape_id 16
num_samples 45
0
0.0455
0.0909
0.1364
0.1818
0.2273
0.2727
0.3182
0.3636
0.4091
0.4545
0.5
0.5455
0.5909
0.6364
0.6818
0.7273
0.7727
0.8182
0.8636
0.9091
0.9545
1
0.9545
0.9091
0.8636
0.8182
0.7727
0.7273
0.6818
0.6364
0.5909
0.5455
0.5
0.4545
0.4091
0.3636
0.3182
0.2727
0.2273
0.1818
0.1364
0.0909
0.0455
0

shape_id 17
num_samples 45
0
0.0455
0.0909
0.1364
0.1818
0.2273
0.2727
0.3182
0.3636
0.4091
0.4545
0.5
0.5455
0.5909
0.6364
0.6818
0.7273
0.7727
0.8182
0.8636
0.9091
0.9545
1
0.9545
0.9091
0.8636
0.8182
0.7727
0.7273
0.6818
0.6364
0.5909
0.5455
0.5
0.4545
0.4091
0.3636
0.3182
0.2727
0.2273
0.1818
0.1364
0.0909
0.0455
0

shape_id 18
num_samples 45
0
0.0455
0.0909
0.1364
0.1818
0.2273
0.2727
0.3182
0.3636
0.4091
0.4545
0.5
0.5455
0.5909
0.6364
0.6818
0.7273
0.7727
0.8182
0.8636
0.9091
0.9545
1
0.9545
0.9091
0.8636
0.8182
0.7727
0.7273
0.6818
0.6364
0.5909
0.5455
0.5
0.4545
0.4091
0.3636
0.3182
0.2727
0.2273
0.1818
0.1364
0.0909
0.0455
0

shape_id 19
num_samples 45
0
0.0455
0.0909
0.1364
0.1818
0.2273
0.2727
0.3182
0.3636
0.4091
0.4545
0.5
0.5455
0.5909
0.6364
0.6818
0.7273
0.7727
0.8182
0.8636
0.9091
0.9545
1
0.9545
0.9091
0.8636
0.8182
0.7727
0.7273
0.6818
0.6364
0.5909
0.5455
0.5
0.4545
0.4091
0.3636
0.3182
0.2727
0.2273
0.1818
0.1364
0.0909
0.0455
0

shape_id 20
num_samples 45
0
0.0455
0.0909
0.1364
0.1818
0.2273
0.2727
0.3182
0.3636
0.4091
0.4545
0.5
0.5455
0.5909
0.6364
0.6818
0.7273
0.7727
0.8182
0.8636
0.9091
0.9545
1
0.9545
0.9091
0.8636
0.8182
0.7727
0.7273
0.6818
0.6364
0.5909
0.5455
0.5
0.4545
0.4091
0.3636
0.3182
0.2727
0.2273
0.1818
0.1364
0.0909
0.0455
0

shape_id 21
num_samples 45
0
0.0455
0.0909
0.1364
0.1818
0.2273
0.2727
0.3182
0.3636
0.4091
0.4545
0.5
0.5455
0.5909
0.6364
0.6818
0.7273
0.7727
0.8182
0.8636
0.9091
0.9545
1
0.9545
0.9091
0.8636
0.8182
0.7727
0.7273
0.6818
0.6364
0.5909
0.5455
0.5
0.4545
0.4091
0.3636
0.3182
0.2727
0.2273
0.1818
0.1364
0.0909
0.0455
0

shape_id 22
num_samples 45
0
0.0455
0.0909
0.1364
0.1818
0.2273
0.2727
0.3182
0.3636
0.4091
0.4545
0.5
0.5455
0.5909
0.6364
0.6818
0.7273
0.7727
0.8182
0.8636
0.9091
0.9545
1
0.9545
0.9091
0.8636
0.8182
0.7727
0.7273
0.6818
0.6364
0.5909
0.5455
0.5
0.4545
0.4091
0.3636
0.3182
0.2727
0.2273
0.1818
0.1364
0.0909
0.0455
0

shape_id 23
num_samples 45
0
0.0455
0.0909
0.1364
0.1818
0.2273
0.2727
0.3182
0.3636
0.4091
0.4545
0.5
0.5455
0.5909
0.6364
0.6818
0.7273
0.7727
0.8182
0.8636
0.9091
0.9545
1
0.9545
0.9091
0.8636
0.8182
0.7727
0.7273
0.6818
0.6364
0.5909
0.5455
0.5
0.4545
0.4091
0.3636
0.3182
0.2727
0.2273
0.1818
0.1364
0.0909
0.0455
0

shape_id 24
num_samples 45
0
0.0455
0.0909
0.1364
0.1818
0.2273
0.2727
0.3182
0.3636
0.4091
0.4545
0.5
0.5455
0.5909
0.6364
0.6818
0.7273
0.7727
0.8182
0.8636
0.9091
0.9545
1
0.9545
0.9091
0.8636
0.8182
0.7727
0.7273
0.6818
0.6364
0.5909
0.5455
0.5
0.4545
0.4091
0.3636
0.3182
0.2727
0.2273
0.1818
0.1364
0.0909
0.0455
0

shape_id 25
num_samples 45
0
0.0455
0.0909
0.1364
0.1818
0.2273
0.2727
0.3182
0.3636
0.4091
0.4545
0.5
0.5455
0.5909
0.6364
0.6818
0.7273
0.7727
0.8182
0.8636
0.9091
0.9545
1
0.9545
0.9091
0.8636
0.8182
0.7727
0.7273
0.6818
0.6364
0.5909
0.5455
0.5
0.4545
0.4091
0.3636
0.3182
0.2727
0.2273
0.1818
0.1364
0.0909
0.0455
0

shape_id 26
num_samples 45
0
0.0455
0.0909
0.1364
0.1818
0.2273
0.2727
0.3182
0.3636
0.4091
0.4545
0.5
0.5455
0.5909
0.6364
0.6818
0.7273
0.7727
0.8182
0.8636
0.9091
0.9545
1
0.9545
0.9091
0.8636
0.8182
0.7727
0.7273
0.6818
0.6364
0.5909
0.5455
0.5
0.4545
0.4091
0.3636
0.3182
0.2727
0.2273
0.1818
0.1364
0.0909
0.0455
0

shape_id 27
num_samples 45
0
0.0455
0.0909
0.1364
0.1818
0.2273
0.2727
0.3182
0.3636
0.4091
0.4545
0.5
0.5455
0.5909
0.6364
0.6818
0.7273
0.7727
0.8182
0.8636
0.9091
0.9545
1
0.9545
0.9091
0.8636
0.8182
0.7727
0.7273
0.6818
0.6364
0.5909
0.5455
0.5
0.4545
0.4091
0.3636
0.3182
0.2727
0.2273
0.1818
0.1364
0.0909
0.0455
0

shape_id 28
num_samples 45
0
0.0455
0.0909
0.1364
0.1818
0.2273
0.2727
0.3182
0.3636
0.4091
0.4545
0.5
0.5455
0.5909
0.6364
0.6818
0.7273
0.7727
0.8182
0.8636
0.9091
0.9545
1
0.9545
0.9091
0.8636
0.8182
0.7727
0.7273
0.6818
0.6364
0.5909
0.5455
0.5
0.4545
0.4091
0.3636
0.3182
0.2727
0.2273
0.1818
0.1364
0.0909
0.0455
0

shape_id 29
num_samples 45
0
0.0455
0.0909
0.1364
0.1818
0.2273
0.2727
0.3182
0.3636
0.4091
0.4545
0.5
0.5455
0.5909
0.6364
0.6818
0.7273
0.7727
0.8182
0.8636
0.9091
0.9545
1
0.9545
0.9091
0.8636
0.8182
0.7727
0.7273
0.6818
0.6364
0.5909
0.5455
0.5
0.4545
0.4091
0.3636
0.3182
0.2727
0.2273
0.1818
0.1364
0.0909
0.0455
0

shape_id 30
num_samples 45
0
0.0455
0.0909
0.1364
0.1818
0.2273
0.2727
0.3182
0.3636
0.4091
0.4545
0.5
0.5455
0.5909
0.6364
0.6818
0.7273
0.7727
0.8182
0.8636
0.9091
0.9545
1
0.9545
0.9091
0.8636
0.8182
0.7727
0.7273
0.6818
0.6364
0.5909
0.5455
0.5
0.4545
0.4091
0.3636
0.3182
0.2727
0.2273
0.1818
0.1364
0.0909
0.0455
0

shape_id 31
num_samples 45
0
0.0455
0.0909
0.1364
0.1818
0.2273
0.2727
0.3182
0.3636
0.4091
0.4545
0.5
0.5455
0.5909
0.6364
0.6818
0.7273
0.7727
0.8182
0.8636
0.9091
0.9545
1
0.9545
0.9091
0.8636
0.8182
0.7727
0.7273
0.6818
0.6364
0.5909
0.5455
0.5
0.4545
0.4091
0.3636
0.3182
0.2727
0.2273
0.1818
0.1364
0.0909
0.0455
0

shape_id 32
num_samples 45
0
0.0455
0.0909
0.1364
0.1818
0.2273
0.2727
0.3182
0.3636
0.4091
0.4545
0.5
0.5455
0.5909
0.6364
0.6818
0.7273
0.7727
0.8182
0.8636
0.9091
0.9545
1
0.9545
0.9091
0.8636
0.8182
0.7727
0.7273
0.6818
0.6364
0.5909
0.5455
0.5
0.4545
0.4091
0.3636
0.3182
0.2727
0.2273
0.1818
0.1364
0.0909
0.0455
0

shape_id 33
num_samples 45
0
0.0455
0.0909
0.1364
0.1818
0.2273
0.2727
0.3182
0.3636
0.4091
0.4545
0.5
0.5455
0.5909
0.6364
0.6818
0.7273
0.7727
0.8182
0.8636
0.9091
0.9545
1
0.9545
0.9091
0.8636
0.8182
0.7727
0.7273
0.6818
0.6364
0.5909
0.5455
0.5
0.4545
0.4091
0.3636
0.3182
0.2727
0.2273
0.1818
0.1364
0.0909
0.0455
0

shape_id 34
num_samples 45
0
0.0455
0.0909
0.1364
0.1818
0.2273
0.2727
0.3182
0.3636
0.4091
0.4545
0.5
0.5455
0.5909
0.6364
0.6818
0.7273
0.7727
0.8182
0.8636
0.9091
0.9545
1
0.9545
0.9091
0.8636
0.8182
0.7727
0.7273
0.6818
0.6364
0.5909
0.5455
0.5
0.4545
0.4091
0.3636
0.3182
0.2727
0.2273
0.1818
0.1364
0.0909
0.0455
0

shape_id 35
num_samples 45
0
0.0455
0.0909
0.1364
0.1818
0.2273
0.2727
0.3182
0.3636
0.4091
0.4545
0.5
0.5455
0.5909
0.6364
0.6818
0.7273
0.7727
0.8182
0.8636
0.9091
0.9545
1
0.9545
0.9091
0.8636
0.8182
0.7727
0.7273
0.6818
0.6364
0.5909
0.5455
0.5
0.4545
0.4091
0.3636
0.3182
0.2727
0.2273
0.1818
0.1364
0.0909
0.0455
0

shape_id 36
num_samples 45
0
0.0455
0.0909
0.1364
0.1818
0.2273
0.2727
0.3182
0.3636
0.4091
0.4545
0.5
0.5455
0.5909
0.6364
0.6818
0.7273
0.7727
0.8182
0.8636
0.9091
0.9545
1
0.9545
0.9091
0.8636
0.8182
0.7727
0.7273
0.6818
0.6364
0.5909
0.5455
0.5
0.4545
0.4091
0.3636
0.3182
0.2727
0.2273
0.1818
0.1364
0.0909
0.0455
0

shape_id 37
num_samples 45
0
0.0455
0.0909
0.1364
0.1818
0.2273
0.2727
0.3182
0.3636
0.4091
0.4545
0.5
0.5455
0.5909
0.6364
0.6818
0.7273
0.7727
0.8182
0.8636
0.9091
0.9545
1
0.9545
0.9091
0.8636
0.8182
0.7727
0.7273
0.6818
0.6364
0.5909
0.5455
0.5
0.4545
0.4091
0.3636
0.3182
0.2727
0.2273
0.1818
0.1364
0.0909
0.0455
0

shape_id 38
num_samples 45
0
0.0455
0.0909
0.1364
0.1818
0.2273
0.2727
0.3182
0.3636
0.4091
0.4545
0.5
0.5455
0.5909
0.6364
0.6818
0.7273
0.7727
0.8182
0.8636
0.9091
0.9545
1
0.9545
0.9091
0.8636
0.8182
0.7727
0.7273
0.6818
0.6364
0.5909
0.5455
0.5
0.4545
0.4091
0.3636
0.3182
0.2727
0.2273
0.1818
0.1364
0.0909
0.0455
0

shape_id 39
num_samples 45
0
0.0455
0.0909
0.1364
0.1818
0.2273
0.2727
0.3182
0.3636
0.4091
0.4545
0.5
0.5455
0.5909
0.6364
0.6818
0.7273
0.7727
0.8182
0.8636
0.9091
0.9545
1
0.9545
0.9091
0.8636
0.8182
0.7727
0.7273
0.6818
0.6364
0.5909
0.5455
0.5
0.4545
0.4091
0.3636
0.3182
0.2727
0.2273
0.1818
0.1364
0.0909
0.0455
0

shape_id 40
num_samples 45
0
0.0455
0.0909
0.1364
0.1818
0.2273
0.2727
0.3182
0.3636
0.4091
0.4545
0.5
0.5455
0.5909
0.6364
0.6818
0.7273
0.7727
0.8182
0.8636
0.9091
0.9545
1
0.9545
0.9091
0.8636
0.8182
0.7727
0.7273
0.6818
0.6364
0.5909
0.5455
0.5
0.4545
0.4091
0.3636
0.3182
0.2727
0.2273
0.1818
0.1364
0.0909
0.0455
0

shape_id 41
num_samples 45
0
0.0455
0.0909
0.1364
0.1818
0.2273
0.2727
0.3182
0.3636
0.4091
0.4545
0.5
0.5455
0.5909
0.6364
0.6818
0.7273
0.7727
0.8182
0.8636
0.9091
0.9545
1
0.9545
0.9091
0.8636
0.8182
0.7727
0.7273
0.6818
0.6364
0.5909
0.5455
0.5
0.4545
0.4091
0.3636
0.3182
0.2727
0.2273
0.1818
0.1364
0.0909
0.0455
0

shape_id 42
num_samples 45
0
0.0455
0.0909
0.1364
0.1818
0.2273
0.2727
0.3182
0.3636
0.4091
0.4545
0.5
0.5455
0.5909
0.6364
0.6818
0.7273
0.7727
0.8182
0.8636
0.9091
0.9545
1
0.9545
0.9091
0.8636
0.8182
0.7727
0.7273
0.6818
0.6364
0.5909
0.5455
0.5
0.4545
0.4091
0.3636
0.3182
0.2727
0.2273
0.1818
0.1364
0.0909
0.0455
0

shape_id 43
num_samples 45
0
0.0455
0.0909
0.1364
0.1818
0.2273
0.2727
0.3182
0.3636
0.4091
0.4545
0.5
0.5455
0.5909
0.6364
0.6818
0.7273
0.7727
0.8182
0.8636
0.9091
0.9545
1
0.9545
0.9091
0.8636
0.8182
0.7727
0.7273
0.6818
0.6364
0.5909
0.5455
0.5
0.4545
0.4091
0.3636
0.3182
0.2727
0.2273
0.1818
0.1364
0.0909
0.0455
0

shape_id 44
num_samples 45
0
0.0455
0.0909
0.1364
0.1818
0.2273
0.2727
0.3182
0.3636
0.4091
0.4545
0.5
0.5455
0.5909
0.6364
0.6818
0.7273
0.7727
0.8182
0.8636
0.9091
0.9545
1
0.9545
0.9091
0.8636
0.8182
0.7727
0.7273
0.6818
0.6364
0.5909
0.5455
0.5
0.4545
0.4091
0.3636
0.3182
0.2727
0.2273
0.1818
0.1364
0.0909
0.0455
0

shape_id 45
num_samples 45
0
0.0455
0.0909
0.1364
0.1818
0.2273
0.2727
0.3182
0.3636
0.4091
0.4545
0.5
0.5455
0.5909
0.6364
0.6818
0.7273
0.7727
0.8182
0.8636
0.9091
0.9545
1
0.9545
0.9091
0.8636
0.8182
0.7727
0.7273
0.6818
0.6364
0.5909
0.5455
0.5
0.4545
0.4091
0.3636
0.3182
0.2727
0.2273
0.1818
0.1364
0.0909
0.0455
0

shape_id 46
num_samples 45
0
0.0455
0.0909
0.1364
0.1818
0.2273
0.2727
0.3182
0.3636
0.4091
0.4545
0.5
0.5455
0.5909
0.6364
0.6818
0.7273
0.7727
0.8182
0.8636
0.9091
0.9545
1
0.9545
0.9091
0.8636
0.8182
0.7727
0.7273
0.6818
0.6364
0.5909
0.5455
