# Pulseq sequence file
# Created by PyPulseq

[VERSION]
major 1
minor 4
revision 0

[DEFINITIONS]
AdcRasterTime 1e-07 
BlockDurationRaster 1e-05 
FOV 0.3 0.3 0.005 
GradientRasterTime 1e-05 
Name YARRA 
RadiofrequencyRasterTime 1e-06 
TotalDuration 2.56384 

# Format of blocks:
# NUM DUR RF  GX  GY  GZ  ADC  EXT
[BLOCKS]
  1 276   1   0   0   1  0  0
  2  52   0   2   3   4  0  0
  3 1005   0   5   0   0  1  0
  4  52   0   0   6   4  0  0
  5 618   0   0   0   0  0  0
  6 276   2   0   0   1  0  0
  7  52   0   2   7   4  0  0
  8 1005   0   5   0   0  2  0
  9  52   0   0   8   4  0  0
 10 618   0   0   0   0  0  0
 11 276   3   0   0   1  0  0
 12  52   0   2   9   4  0  0
 13 1005   0   5   0   0  3  0
 14  52   0   0  10   4  0  0
 15 618   0   0   0   0  0  0
 16 276   4   0   0   1  0  0
 17  52   0   2  11   4  0  0
 18 1005   0   5   0   0  4  0
 19  52   0   0  12   4  0  0
 20 618   0   0   0   0  0  0
 21 276   5   0   0   1  0  0
 22  52   0   2  13   4  0  0
 23 1005   0   5   0   0  5  0
 24  52   0   0  14   4  0  0
 25 618   0   0   0   0  0  0
 26 276   6   0   0   1  0  0
 27  52   0   2  15   4  0  0
 28 1005   0   5   0   0  6  0
 29  52   0   0  16   4  0  0
 30 618   0   0   0   0  0  0
 31 276   7   0   0   1  0  0
 32  52   0   2  17   4  0  0
 33 1005   0   5   0   0  7  0
 34  52   0   0  18   4  0  0
 35 618   0   0   0   0  0  0
 36 276   8   0   0   1  0  0
 37  52   0   2  19   4  0  0
 38 1005   0   5   0   0  8  0
 39  52   0   0  20   4  0  0
 40 618   0   0   0   0  0  0
 41 276   9   0   0   1  0  0
 42  52   0   2  21   4  0  0
 43 1005   0   5   0   0  9  0
 44  52   0   0  22   4  0  0
 45 618   0   0   0   0  0  0
 46 276  10   0   0   1  0  0
 47  52   0   2  23   4  0  0
 48 1005   0   5   0   0 10  0
 49  52   0   0  24   4  0  0
 50 618   0   0   0   0  0  0
 51 276  11   0   0   1  0  0
 52  52   0   2  25   4  0  0
 53 1005   0   5   0   0 11  0
 54  52   0   0  26   4  0  0
 55 618   0   0   0   0  0  0
 56 276   3   0   0   1  0  0
 57  52   0   2  27   4  0  0
 58 1005   0   5   0   0  3  0
 59  52   0   0  28   4  0  0
 60 618   0   0   0   0  0  0
 61 276  10   0   0   1  0  0
 62  52   0   2  29   4  0  0
 63 1005   0   5   0   0 10  0
 64  52   0   0  30   4  0  0
 65 618   0   0   0   0  0  0
 66 276  12   0   0   1  0  0
 67  52   0   2  31   4  0  0
 68 1005   0   5   0   0 12  0
 69  52   0   0  32   4  0  0
 70 618   0   0   0   0  0  0
 71 276  13   0   0   1  0  0
 72  52   0   2  33   4  0  0
 73 1005   0   5   0   0 13  0
 74  52   0   0  34   4  0  0
 75 618   0   0   0   0  0  0
 76 276   7   0   0   1  0  0
 77  52   0   2  35   4  0  0
 78 1005   0   5   0   0  7  0
 79  52   0   0  36   4  0  0
 80 618   0   0   0   0  0  0
 81 276   9   0   0   1  0  0
 82  52   0   2  37   4  0  0
 83 1005   0   5   0   0  9  0
 84  52   0   0  38   4  0  0
 85 618   0   0   0   0  0  0
 86 276  14   0   0   1  0  0
 87  52   0   2  39   4  0  0
 88 1005   0   5   0   0 14  0
 89  52   0   0  40   4  0  0
 90 618   0   0   0   0  0  0
 91 276   4   0   0   1  0  0
 92  52   0   2  41   4  0  0
 93 1005   0   5   0   0  4  0
 94  52   0   0  42   4  0  0
 95 618   0   0   0   0  0  0
 96 276  11   0   0   1  0  0
 97  52   0   2  43   4  0  0
 98 1005   0   5   0   0 11  0
 99  52   0   0  44   4  0  0
100 618   0   0   0   0  0  0
101 276   5   0   0   1  0  0
102  52   0   2  45   4  0  0
103 1005   0   5   0   0  5  0
104  52   0   0  46   4  0  0
105 618   0   0   0   0  0  0
106 276   1   0   0   1  0  0
107  52   0   2  47   4  0  0
108 1005   0   5   0   0  1  0
109  52   0   0  48   4  0  0
110 618   0   0   0   0  0  0
111 276  15   0   0   1  0  0
112  52   0   2  49   4  0  0
113 1005   0   5   0   0 15  0
114  52   0   0  50   4  0  0
115 618   0   0   0   0  0  0
116 276  13   0   0   1  0  0
117  52   0   2  51   4  0  0
118 1005   0   5   0   0 13  0
119  52   0   0  52   4  0  0
120 618   0   0   0   0  0  0
121 276   1   0   0   1  0  0
122  52   0   2  53   4  0  0
123 1005   0   5   0   0  1  0
124  52   0   0  54   4  0  0
125 618   0   0   0   0  0  0
126 276  14   0   0   1  0  0
127  52   0   2  55   4  0  0
128 1005   0   5   0   0 14  0
129  52   0   0  56   4  0  0
130 618   0   0   0   0  0  0
131 276  16   0   0   1  0  0
132  52   0   2  57   4  0  0
133 1005   0   5   0   0 16  0
134  52   0   0  58   4  0  0
135 618   0   0   0   0  0  0
136 276   4   0   0   1  0  0
137  52   0   2  59   4  0  0
138 1005   0   5   0   0  4  0
139  52   0   0  60   4  0  0
140 618   0   0   0   0  0  0
141 276   2   0   0   1  0  0
142  52   0   2  61   4  0  0
143 1005   0   5   0   0  2  0
144  52   0   0  62   4  0  0
145 618   0   0   0   0  0  0
146 276  12   0   0   1  0  0
147  52   0   2  63   4  0  0
148 1005   0   5   0   0 12  0
149  52   0   0  64   4  0  0
150 618   0   0   0   0  0  0
151 276   7   0   0   1  0  0
152  52   0   2  65   4  0  0
153 1005   0   5   0   0  7  0
154  52   0   0  66   4  0  0
155 618   0   0   0   0  0  0
156 276  15   0   0   1  0  0
157  52   0   2  67   4  0  0
158 1005   0   5   0   0 15  0
159  52   0   0  68   4  0  0
160 618   0   0   0   0  0  0
161 276   6   0   0   1  0  0
162  52   0   2  69   4  0  0
163 1005   0   5   0   0  6  0
164  52   0   0  70   4  0  0
165 618   0   0   0   0  0  0
166 276  10   0   0   1  0  0
167  52   0   2  71   4  0  0
168 1005   0   5   0   0 10  0
169  52   0   0  72   4  0  0
170 618   0   0   0   0  0  0
171 276  16   0   0   1  0  0
172  52   0   2  73   4  0  0
173 1005   0   5   0   0 16  0
174  52   0   0  74   4  0  0
175 618   0   0   0   0  0  0
176 276  16   0   0   1  0  0
177  52   0   2  75   4  0  0
178 1005   0   5   0   0 16  0
179  52   0   0  76   4  0  0
180 618   0   0   0   0  0  0
181 276  10   0   0   1  0  0
182  52   0   2  77   4  0  0
183 1005   0   5   0   0 10  0
184  52   0   0  78   4  0  0
185 618   0   0   0   0  0  0
186 276   6   0   0   1  0  0
187  52   0   2  79   4  0  0
188 1005   0   5   0   0  6  0
189  52   0   0  80   4  0  0
190 618   0   0   0   0  0  0
191 276  15   0   0   1  0  0
192  52   0   2  81   4  0  0
193 1005   0   5   0   0 15  0
194  52   0   0  82   4  0  0
195 618   0   0   0   0  0  0
196 276   7   0   0   1  0  0
197  52   0   2  83   4  0  0
198 1005   0   5   0   0  7  0
199  52   0   0  84   4  0  0
200 618   0   0   0   0  0  0
201 276  12   0   0   1  0  0
202  52   0   2  85   4  0  0
203 1005   0   5   0   0 12  0
204  52   0   0  86   4  0  0
205 618   0   0   0   0  0  0
206 276   2   0   0   1  0  0
207  52   0   2  87   4  0  0
208 1005   0   5   0   0  2  0
209  52   0   0  88   4  0  0
210 618   0   0   0   0  0  0
211 276   4   0   0   1  0  0
212  52   0   2  89   4  0  0
213 1005   0   5   0   0  4  0
214  52   0   0  90   4  0  0
215 618   0   0   0   0  0  0
216 276  16   0   0   1  0  0
217  52   0   2  91   4  0  0
218 1005   0   5   0   0 16  0
219  52   0   0  92   4  0  0
220 618   0   0   0   0  0  0
221 276  14   0   0   1  0  0
222  52   0   2  93   4  0  0
223 1005   0   5   0   0 14  0
224  52   0   0  94   4  0  0
225 618   0   0   0   0  0  0
226 276   1   0   0   1  0  0
227  52   0   2  95   4  0  0
228 1005   0   5   0   0  1  0
229  52   0   0  96   4  0  0
230 618   0   0   0   0  0  0
231 276  13   0   0   1  0  0
232  52   0   2  97   4  0  0
233 1005   0   5   0   0 13  0
234  52   0   0  98   4  0  0
235 618   0   0   0   0  0  0
236 276  15   0   0   1  0  0
237  52   0   2  99   4  0  0
238 1005   0   5   0   0 15  0
239  52   0   0 100   4  0  0
240 618   0   0   0   0  0  0
241 276   1   0   0   1  0  0
242  52   0   2 101   4  0  0
243 1005   0   5   0   0  1  0
244  52   0   0 102   4  0  0
245 618   0   0   0   0  0  0
246 276   5   0   0   1  0  0
247  52   0   2 103   4  0  0
248 1005   0   5   0   0  5  0
249  52   0   0 104   4  0  0
250 618   0   0   0   0  0  0
251 276  11   0   0   1  0  0
252  52   0   2 105   4  0  0
253 1005   0   5   0   0 11  0
254  52   0   0 106   4  0  0
255 618   0   0   0   0  0  0
256 276   4   0   0   1  0  0
257  52   0   2 107   4  0  0
258 1005   0   5   0   0  4  0
259  52   0   0 108   4  0  0
260 618   0   0   0   0  0  0
261 276  14   0   0   1  0  0
262  52   0   2 109   4  0  0
263 1005   0   5   0   0 14  0
264  52   0   0 110   4  0  0
265 618   0   0   0   0  0  0
266 276   9   0   0   1  0  0
267  52   0   2 111   4  0  0
268 1005   0   5   0   0  9  0
269  52   0   0 112   4  0  0
270 618   0   0   0   0  0  0
271 276   7   0   0   1  0  0
272  52   0   2 113   4  0  0
273 1005   0   5   0   0  7  0
274  52   0   0 114   4  0  0
275 618   0   0   0   0  0  0
276 276  13   0   0   1  0  0
277  52   0   2 115   4  0  0
278 1005   0   5   0   0 13  0
279  52   0   0 116   4  0  0
280 618   0   0   0   0  0  0
281 276  12   0   0   1  0  0
282  52   0   2 117   4  0  0
283 1005   0   5   0   0 12  0
284  52   0   0 118   4  0  0
285 618   0   0   0   0  0  0
286 276  10   0   0   1  0  0
287  52   0   2 119   4  0  0
288 1005   0   5   0   0 10  0
289  52   0   0 120   4  0  0
290 618   0   0   0   0  0  0
291 276   3   0   0   1  0  0
292  52   0   2 121   4  0  0
293 1005   0   5   0   0  3  0
294  52   0   0 122   4  0  0
295 618   0   0   0   0  0  0
296 276  11   0   0   1  0  0
297  52   0   2 123   4  0  0
298 1005   0   5   0   0 11  0
299  52   0   0 124   4  0  0
300 618   0   0   0   0  0  0
301 276  10   0   0   1  0  0
302  52   0   2 125   4  0  0
303 1005   0   5   0   0 10  0
304  52   0   0 126   4  0  0
305 618   0   0   0   0  0  0
306 276   9   0   0   1  0  0
307  52   0   2 127   4  0  0
308 1005   0   5   0   0  9  0
309  52   0   0 128   4  0  0
[RF]
1      46.1634 2 3 4 100 0 0.872665
2      46.1634 2 3 4 100 0 2.61799
3      46.1634 2 3 4 100 0 5.23599
4      46.1634 2 3 4 100 0 2.44346
5      46.1634 2 3 4 100 0 0.523599
6      46.1634 2 3 4 100 0 5.75959
7      46.1634 2 3 4 100 0 5.58505
8      46.1634 2 3 4 100 0 0
9      46.1634 2 3 4 100 0 1.5708
10      46.1634 2 3 4 100 0 4.01426
11      46.1634 2 3 4 100 0 1.0472
12      46.1634 2 3 4 100 0 3.66519
13      46.1634 2 3 4 100 0 4.18879
14      46.1634 2 3 4 100 0 4.71239
15      46.1634 2 3 4 100 0 2.0944
16      46.1634 2 3 4 100 0 3.14159

# Format of arbitrary gradients:
#   time_shape_id of 0 means default timing (stepping with grad_raster starting at 1/2 of grad_raster)
# id amplitude amp_shape_id time_shape_id delay
# ..      Hz/m       ..         ..          us
[GRADIENTS]
1       210756 1 0 0
2      -934991 5 0 0
3      -927706 6 0 0
4      -934991 7 0 0
5       111126 8 0 6150
6       927706 6 0 0
7      -913323 9 0 0
8       913323 9 0 0
9      -898940 10 0 0
10       898940 10 0 0
11      -884557 11 0 0
12       884557 11 0 0
13      -870174 12 0 0
14       870174 12 0 0
15      -855791 13 0 0
16       855791 13 0 0
17      -841408 9 0 0
18       841408 9 0 0
19      -827025 14 0 0
20       827025 14 0 0
21      -812642 15 0 0
22       812642 15 0 0
23      -798259 16 0 0
24       798259 16 0 0
25      -783876 9 0 0
26       783876 9 0 0
27      -769493 17 0 0
28       769493 17 0 0
29      -755110 18 0 0
30       755110 18 0 0
31      -740727 19 0 0
32       740727 19 0 0
33      -726344 20 0 0
34       726344 20 0 0
35      -711961 21 0 0
36       711961 21 0 0
37      -697578 22 0 0
38       697578 22 0 0
39      -683195 23 0 0
40       683195 23 0 0
41      -668811 24 0 0
42       668811 24 0 0
43      -654428 25 0 0
44       654428 25 0 0
45      -640045 26 0 0
46       640045 26 0 0
47      -625662 27 0 0
48       625662 27 0 0
49      -611279 28 0 0
50       611279 28 0 0
51      -596896 29 0 0
52       596896 29 0 0
53      -582513 30 0 0
54       582513 30 0 0
55      -568130 31 0 0
56       568130 31 0 0
57      -553747 9 0 0
58       553747 9 0 0
59      -539364 9 0 0
60       539364 9 0 0
61      -524981 9 0 0
62       524981 9 0 0
63      -510598 9 0 0
64       510598 9 0 0
65      -496215 9 0 0
66       496215 9 0 0
67      -481832 32 0 0
68       481832 32 0 0
69      -467449 33 0 0
70       467449 33 0 0
71      -453066 34 0 0
72       453066 34 0 0
73      -438683 35 0 0
74       438683 35 0 0
75      -424300 31 0 0
76       424300 31 0 0
77      -409917 36 0 0
78       409917 36 0 0
79      -395534 37 0 0
80       395534 37 0 0
81      -381151 19 0 0
82       381151 19 0 0
83      -366768 38 0 0
84       366768 38 0 0
85      -352385 39 0 0
86       352385 39 0 0
87      -338002 33 0 0
88       338002 33 0 0
89      -323618 40 0 0
90       323618 40 0 0
91      -309235 41 0 0
92       309235 41 0 0
93      -294852 11 0 0
94       294852 11 0 0
95      -280469 9 0 0
96       280469 9 0 0
97      -266086 9 0 0
98       266086 9 0 0
99      -251703 42 0 0
100       251703 42 0 0
101      -237320 21 0 0
102       237320 21 0 0
103      -222937 25 0 0
104       222937 25 0 0
105      -208554 43 0 0
106       208554 43 0 0
107      -194171 44 0 0
108       194171 44 0 0
109      -179788 45 0 0
110       179788 45 0 0
111      -165405 26 0 0
112       165405 26 0 0
113      -151022 30 0 0
114       151022 30 0 0
115      -136639 9 0 0
116       136639 9 0 0
117      -122256 10 0 0
118       122256 10 0 0
119      -107873 46 0 0
120       107873 46 0 0
121     -93489.8 47 0 0
122      93489.8 47 0 0
123     -79106.7 48 0 0
124      79106.7 48 0 0
125     -64723.7 9 0 0
126      64723.7 9 0 0
127     -50340.6 49 0 0
128      50340.6 49 0 0
129     -35957.6 50 0 0
130      35957.6 50 0 0
131     -21574.6 51 0 0
132      21574.6 51 0 0
133     -7191.52 9 0 0
134      7191.52 9 0 0

# Format of ADC events:
# id num dwell delay freq phase
# ..  ..    ns    us   Hz   rad
[ADC]
1 128 30000 6180 0 0.872665
2 128 30000 6180 0 2.61799
3 128 30000 6180 0 5.23599
4 128 30000 6180 0 2.44346
5 128 30000 6180 0 0.523599
6 128 30000 6180 0 5.75959
7 128 30000 6180 0 5.58505
8 128 30000 6180 0 0
9 128 30000 6180 0 1.5708
10 128 30000 6180 0 4.01426
11 128 30000 6180 0 1.0472
12 128 30000 6180 0 3.66519
13 128 30000 6180 0 4.18879
14 128 30000 6180 0 4.71239
15 128 30000 6180 0 2.0944
16 128 30000 6180 0 3.14159

# Sequence Shapes
[SHAPES]

shape_id 1
num_samples 276
0
0.1
0.1
8
0
0
253
-0.1
-0.1
8

shape_id 2
num_samples 128
3.13408678e-05
0.000275365972
0.000741999828
0.00140100794
0.00221394946
0.00313434687
0.00410794205
0.00507307441
0.00596111101
0.00669709683
0.00720032491
0.00738518665
0.00716193209
0.00643765018
0.00511722915
0.00310435686
0.000302691099
0.00338310996
0.00804617742
0.0137763013
0.0206588
0.0287734103
0.0381929564
0.0489826602
0.0611988404
0.0748879126
0.0900858887
0.106816677
0.125093781
0.144915402
0.166268534
0.189126168
0.213447291
0.239176885
0.266245926
0.294573388
0.324062237
0.354604438
0.386079951
0.418355731
0.45128873
0.484726899
0.518508182
0.552463523
0.586416863
0.620189143
0.653595301
0.686450274
0.718566001
0.749758419
0.779842467
0.808640086
0.835977216
0.861685803
0.885606793
0.907593136
0.927504787
0.945215702
0.960613845
0.973600182
0.984091687
0.992020335
0.99733411
1
1
0.99733411
0.992020335
0.984091687
0.973600182
0.960613845
0.945215702
0.927504787
0.907593136
0.885606793
0.861685803
0.835977216
0.808640086
0.779842467
0.749758419
0.718566001
0.686450274
0.653595301
0.620189143
0.586416863
0.552463523
0.518508182
0.484726899
0.45128873
0.418355731
0.386079951
0.354604438
0.324062237
0.294573388
0.266245926
0.239176885
0.213447291
0.189126168
0.166268534
0.144915402
0.125093781
0.106816677
0.0900858887
0.0748879126
0.0611988404
0.0489826602
0.0381929564
0.0287734103
0.0206588
0.0137763013
0.00804617742
0.00338310996
0.000302691099
0.00310435686
0.00511722915
0.00643765018
0.00716193209
0.00738518665
0.00720032491
0.00669709683
0.00596111101
0.00507307441
0.00410794205
0.00313434687
0.00221394946
0.00140100794
0.000741999828
0.000275365972
3.13408678e-05

shape_id 3
num_samples 128
0
0
126

shape_id 4
num_samples 128
10
20
20
125

shape_id 5
num_samples 45
0
0.0455
0.0909
0.1364
0.1818
0.2273
0.2727
0.3182
0.3636
0.4091
0.4545
0.5
0.5455
0.5909
0.6364
0.6818
0.7273
0.7727
0.8182
0.8636
0.9091
0.9545
1
0.9545
0.9091
0.8636
0.8182
0.7727
0.7273
0.6818
0.6364
0.5909
0.5455
0.5
0.4545
0.4091
0.3636
0.3182
0.2727
0.2273
0.1818
0.1364
0.0909
0.0455
0

shape_id 6
num_samples 45
0
0.0455
0.0909
0.1364
0.1818
0.2273
0.2727
0.3182
0.3636
0.4091
0.4545
0.5
0.5455
0.5909
0.6364
0.6818
0.7273
0.7727
0.8182
0.8636
0.9091
0.9545
1
0.9545
0.9091
0.8636
0.8182
0.7727
0.7273
0.6818
0.6364
0.5909
0.5455
0.5
0.4545
0.4091
0.3636
0.3182
0.2727
0.2273
0.1818
0.1364
0.0909
0.0455
0

shape_id 7
num_samples 52
0
0.0455
0.0454
0.0455
0.0454
0.0455
0.0454
0.0455
0.0454
0.0455
0.0454
0.0455
0.0455
0
0.0454
0.0455
0.0454
0.0455
0.0454
0.0455
0.0454
0.0455
0.0454
0.0455
0
0
5
-0.0455
-0.0454
-0.0455
-0.0454
-0.0455
-0.0454
-0.0455
-0.0454
-0.0455
-0.0454
-0.0455
-0.0455
0
-0.0454
-0.0455
-0.0454
-0.0455
-0.0454
-0.0455
-0.0454
-0.0455
-0.0454
-0.0455

shape_id 8
num_samples 390
0
0.3333
0.3334
0.3333
0
0
381
-0.3333
-0.3334
-0.3333

shape_id 9
num_samples 45
0
0.0455
0.0909
0.1364
0.1818
0.2273
0.2727
0.3182
0.3636
0.4091
0.4545
0.5
0.5455
0.5909
0.6364
0.6818
0.7273
0.7727
0.8182
0.8636
0.9091
0.9545
1
0.9545
0.9091
0.8636
0.8182
0.7727
0.7273
0.6818
0.6364
0.5909
0.5455
0.5
0.4545
0.4091
0.3636
0.3182
0.2727
0.2273
0.1818
0.1364
0.0909
0.0455
0

shape_id 10
num_samples 45
0
0.0455
0.0909
0.1364
0.1818
0.2273
0.2727
0.3182
0.3636
0.4091
0.4545
0.5
0.5455
0.5909
0.6364
0.6818
0.7273
0.7727
0.8182
0.8636
0.9091
0.9545
1
0.9545
0.9091
0.8636
0.8182
0.7727
0.7273
0.6818
0.6364
0.5909
0.5455
0.5
0.4545
0.4091
0.3636
0.3182
0.2727
0.2273
0.1818
0.1364
0.0909
0.0455
0

shape_id 11
num_samples 45
0
0.0455
0.0909
0.1364
0.1818
0.2273
0.2727
0.3182
0.3636
0.4091
0.4545
0.5
0.5455
0.5909
0.6364
0.6818
0.7273
0.7727
0.8182
0.8636
0.9091
0.9545
1
0.9545
0.9091
0.8636
0.8182
0.7727
0.7273
0.6818
0.6364
0.5909
0.5455
0.5
0.4545
0.4091
0.3636
0.3182
0.2727
0.2273
0.1818
0.1364
0.0909
0.0455
0

shape_id 12
num_samples 45
0
0.0455
0.0909
0.1364
0.1818
0.2273
0.2727
0.3182
0.3636
0.4091
0.4545
0.5
0.5455
0.5909
0.6364
0.6818
0.7273
0.7727
0.8182
0.8636
0.9091
0.9545
1
0.9545
0.9091
0.8636
0.8182
0.7727
0.7273
0.6818
0.6364
0.5909
0.5455
0.5
0.4545
0.4091
0.3636
0.3182
0.2727
0.2273
0.1818
0.1364
0.0909
0.0455
0

shape_id 13
num_samples 45
0
0.0455
0.0909
0.1364
0.1818
0.2273
0.2727
0.3182
0.3636
0.4091
0.4545
0.5
0.5455
0.5909
0.6364
0.6818
0.7273
0.7727
0.8182
0.8636
0.9091
0.9545
1
0.9545
0.9091
0.8636
0.8182
0.7727
0.7273
0.6818
0.6364
0.5909
0.5455
0.5
0.4545
0.4091
0.3636
0.3182
0.2727
0.2273
0.1818
0.1364
0.0909
0.0455
0

shape_id 14
num_samples 45
0
0.0455
0.0909
0.1364
0.1818
0.2273
0.2727
0.3182
0.3636
0.4091
0.4545
0.5
0.5455
0.5909
0.6364
0.6818
0.7273
0.7727
0.8182
0.8636
0.9091
0.9545
1
0.9545
0.9091
0.8636
0.8182
0.7727
0.7273
0.6818
0.6364
0.5909
0.5455
0.5
0.4545
0.4091
0.3636
0.3182
0.2727
0.2273
0.1818
0.1364
0.0909
0.0455
0

shape_id 15
num_samples 45
0
0.0455
0.0909
0.1364
0.1818
0.2273
0.2727
0.3182
0.3636
0.4091
0.4545
0.5
0.5455
0.5909
0.6364
0.6818
0.7273
0.7727
0.8182
0.8636
0.9091
0.9545
1
0.9545
0.9091
0.8636
0.8182
0.7727
0.7273
0.6818
0.6364
0.5909
0.5455
0.5
0.4545
0.4091
0.3636
0.3182
0.2727
0.2273
0.1818
0.1364
0.0909
0.0455
0

shape_id 16
num_samples 45
0
0.0455
0.0909
0.1364
0.1818
0.2273
0.2727
0.3182
0.3636
0.4091
0.4545
0.5
0.5455
0.5909
0.6364
0.6818
0.7273
0.7727
0.8182
0.8636
0.9091
0.9545
1
0.9545
0.9091
0.8636
0.8182
0.7727
0.7273
0.6818
0.6364
0.5909
0.5455
0.5
0.4545
0.4091
0.3636
0.3182
0.2727
0.2273
0.1818
0.1364
0.0909
0.0455
0

shape_id 17
num_samples 45
0
0.0455
0.0909
0.1364
0.1818
0.2273
0.2727
0.3182
0.3636
0.4091
0.4545
0.5
0.5455
0.5909
0.6364
0.6818
0.7273
0.7727
0.8182
0.8636
0.9091
0.9545
1
0.9545
0.9091
0.8636
0.8182
0.7727
0.7273
0.6818
0.6364
0.5909
0.5455
0.5
0.4545
0.4091
0.3636
0.3182
0.2727
0.2273
0.1818
0.1364
0.0909
0.0455
0

shape_id 18
num_samples 45
0
0.0455
0.0909
0.1364
0.1818
0.2273
0.2727
0.3182
0.3636
0.4091
0.4545
0.5
0.5455
0.5909
0.6364
0.6818
0.7273
0.7727
0.8182
0.8636
0.9091
0.9545
1
0.9545
0.9091
0.8636
0.8182
0.7727
0.7273
0.6818
0.6364
0.5909
0.5455
0.5
0.4545
0.4091
0.3636
0.3182
0.2727
0.2273
0.1818
0.1364
0.0909
0.0455
0

shape_id 19
num_samples 45
0
0.0455
0.0909
0.1364
0.1818
0.2273
0.2727
0.3182
0.3636
0.4091
0.4545
0.5
0.5455
0.5909
0.6364
0.6818
0.7273
0.7727
0.8182
0.8636
0.9091
0.9545
1
0.9545
0.9091
0.8636
0.8182
0.7727
0.7273
0.6818
0.6364
0.5909
0.5455
0.5
0.4545
0.4091
0.3636
0.3182
0.2727
0.2273
0.1818
0.1364
0.0909
0.0455
0

shape_id 20
num_samples 45
0
0.0455
0.0909
0.1364
0.1818
0.2273
0.2727
0.3182
0.3636
0.4091
0.4545
0.5
0.5455
0.5909
0.6364
0.6818
0.7273
0.7727
0.8182
0.8636
0.9091
0.9545
1
0.9545
0.9091
0.8636
0.8182
0.7727
0.7273
0.6818
0.6364
0.5909
0.5455
0.5
0.4545
0.4091
0.3636
0.3182
0.2727
0.2273
0.1818
0.1364
0.0909
0.0455
0

shape_id 21
num_samples 45
0
0.0455
0.0909
0.1364
0.1818
0.2273
0.2727
0.3182
0.3636
0.4091
0.4545
0.5
0.5455
0.5909
0.6364
0.6818
0.7273
0.7727
0.8182
0.8636
0.9091
0.9545
1
0.9545
0.9091
0.8636
0.8182
0.7727
0.7273
0.6818
0.6364
0.5909
0.5455
0.5
0.4545
0.4091
0.3636
0.3182
0.2727
0.2273
0.1818
0.1364
0.0909
0.0455
0

shape_id 22
num_samples 45
0
0.0455
0.0909
0.1364
0.1818
0.2273
0.2727
0.3182
0.3636
0.4091
0.4545
0.5
0.5455
0.5909
0.6364
0.6818
0.7273
0.7727
0.8182
0.8636
0.9091
0.9545
1
0.9545
0.9091
0.8636
0.8182
0.7727
0.7273
0.6818
0.6364
0.5909
0.5455
0.5
0.4545
0.4091
0.3636
0.3182
0.2727
0.2273
0.1818
0.1364
0.0909
0.0455
0

shape_id 23
num_samples 45
0
0.0455
0.0909
0.1364
0.1818
0.2273
0.2727
0.3182
0.3636
0.4091
0.4545
0.5
0.5455
0.5909
0.6364
0.6818
0.7273
0.7727
0.8182
0.8636
0.9091
0.9545
1
0.9545
0.9091
0.8636
0.8182
0.7727
0.7273
0.6818
0.6364
0.5909
0.5455
0.5
0.4545
0.4091
0.3636
0.3182
0.2727
0.2273
0.1818
0.1364
0.0909
0.0455
0

shape_id 24
num_samples 45
0
0.0455
0.0909
0.1364
0.1818
0.2273
0.2727
0.3182
0.3636
0.4091
0.4545
0.5
0.5455
0.5909
0.6364
0.6818
0.7273
0.7727
0.8182
0.8636
0.9091
0.9545
1
0.9545
0.9091
0.8636
0.8182
0.7727
0.7273
0.6818
0.6364
0.5909
0.5455
0.5
0.4545
0.4091
0.3636
0.3182
0.2727
0.2273
0.1818
0.1364
0.0909
0.0455
0

shape_id 25
num_samples 45
0
0.0455
0.0909
0.1364
0.1818
0.2273
0.2727
0.3182
0.3636
0.4091
0.4545
0.5
0.5455
0.5909
0.6364
0.6818
0.7273
0.7727
0.8182
0.8636
0.9091
0.9545
1
0.9545
0.9091
0.8636
0.8182
0.7727
0.7273
0.6818
0.6364
0.5909
0.5455
0.5
0.4545
0.4091
0.3636
0.3182
0.2727
0.2273
0.1818
0.1364
0.0909
0.0455
0

shape_id 26
num_samples 45
0
0.0455
0.0909
0.1364
0.1818
0.2273
0.2727
0.3182
0.3636
0.4091
0.4545
0.5
0.5455
0.5909
0.6364
0.6818
0.7273
0.7727
0.8182
0.8636
0.9091
0.9545
1
0.9545
0.9091
0.8636
0.8182
0.7727
0.7273
0.6818
0.6364
0.5909
0.5455
0.5
0.4545
0.4091
0.3636
0.3182
0.2727
0.2273
0.1818
0.1364
0.0909
0.0455
0

shape_id 27
num_samples 45
0
0.0455
0.0909
0.1364
0.1818
0.2273
0.2727
0.3182
0.3636
0.4091
0.4545
0.5
0.5455
0.5909
0.6364
0.6818
0.7273
0.7727
0.8182
0.8636
0.9091
0.9545
1
0.9545
0.9091
0.8636
0.8182
0.7727
0.7273
0.6818
0.6364
0.5909
0.5455
0.5
0.4545
0.4091
0.3636
0.3182
0.2727
0.2273
0.1818
0.1364
0.0909
0.0455
0

shape_id 28
num_samples 45
0
0.0455
0.0909
0.1364
0.1818
0.2273
0.2727
0.3182
0.3636
0.4091
0.4545
0.5
0.5455
0.5909
0.6364
0.6818
0.7273
0.7727
0.8182
0.8636
0.9091
0.9545
1
0.9545
0.9091
0.8636
0.8182
0.7727
0.7273
0.6818
0.6364
0.5909
0.5455
0.5
0.4545
0.4091
0.3636
0.3182
0.2727
0.2273
0.1818
0.1364
0.0909
0.0455
0

shape_id 29
num_samples 45
0
0.0455
0.0909
0.1364
0.1818
0.2273
0.2727
0.3182
0.3636
0.4091
0.4545
0.5
0.5455
0.5909
0.6364
0.6818
0.7273
0.7727
0.8182
0.8636
0.9091
0.9545
1
0.9545
0.9091
0.8636
0.8182
0.7727
0.7273
0.6818
0.6364
0.5909
0.5455
0.5
0.4545
0.4091
0.3636
0.3182
0.2727
0.2273
0.1818
0.1364
0.0909
0.0455
0

shape_id 30
num_samples 45
0
0.0455
0.0909
0.1364
0.1818
0.2273
0.2727
0.3182
0.3636
0.4091
0.4545
0.5
0.5455
0.5909
0.6364
0.6818
0.7273
0.7727
0.8182
0.8636
0.9091
0.9545
1
0.9545
0.9091
0.8636
0.8182
0.7727
0.7273
0.6818
0.6364
0.5909
0.5455
0.5
0.4545
0.4091
0.3636
0.3182
0.2727
0.2273
0.1818
0.1364
0.0909
0.0455
0

shape_id 31
num_samples 45
0
0.0455
0.0909
0.1364
0.1818
0.2273
0.2727
0.3182
0.3636
0.4091
0.4545
0.5
0.5455
0.5909
0.6364
0.6818
0.7273
0.7727
0.8182
0.8636
0.9091
0.9545
1
0.9545
0.9091
0.8636
0.8182
0.7727
0.7273
0.6818
0.6364
0.5909
0.5455
0.5
0.4545
0.4091
0.3636
0.3182
0.2727
0.2273
0.1818
0.1364
0.0909
0.0455
0

shape_id 32
num_samples 45
0
0.0455
0.0909
0.1364
0.1818
0.2273
0.2727
0.3182
0.3636
0.4091
0.4545
0.5
0.5455
0.5909
0.6364
0.6818
0.7273
0.7727
0.8182
0.8636
0.9091
0.9545
1
0.9545
0.9091
0.8636
0.8182
0.7727
0.7273
0.6818
0.6364
0.5909
0.5455
0.5
0.4545
0.4091
0.3636
0.3182
0.2727
0.2273
0.1818
0.1364
0.0909
0.0455
0

shape_id 33
num_samples 45
0
0.0455
0.0909
0.1364
0.1818
0.2273
0.2727
0.3182
0.3636
0.4091
0.4545
0.5
0.5455
0.5909
0.6364
0.6818
0.7273
0.7727
0.8182
0.8636
0.9091
0.9545
1
0.9545
0.9091
0.8636
0.8182
0.7727
0.7273
0.6818
0.6364
0.5909
0.5455
0.5
0.4545
0.4091
0.3636
0.3182
0.2727
0.2273
0.1818
0.1364
0.0909
0.0455
0

shape_id 34
num_samples 45
0
0.0455
0.0909
0.1364
0.1818
0.2273
0.2727
0.3182
0.3636
0.4091
0.4545
0.5
0.5455
0.5909
0.6364
0.6818
0.7273
0.7727
0.8182
0.8636
0.9091
0.9545
1
0.9545
0.9091
0.8636
0.8182
0.7727
0.7273
0.6818
0.6364
0.5909
0.5455
0.5
0.4545
0.4091
0.3636
0.3182
0.2727
0.2273
0.1818
0.1364
0.0909
0.0455
0

shape_id 35
num_samples 45
0
0.0455
0.0909
0.1364
0.1818
0.2273
0.2727
0.3182
0.3636
0.4091
0.4545
0.5
0.5455
0.5909
0.6364
0.6818
0.7273
0.7727
0.8182
0.8636
0.9091
0.9545
1
0.9545
0.9091
0.8636
0.8182
0.7727
0.7273
0.6818
0.6364
0.5909
0.5455
0.5
0.4545
0.4091
0.3636
0.3182
0.2727
0.2273
0.1818
0.1364
0.0909
0.0455
0

shape_id 36
num_samples 45
0
0.0455
0.0909
0.1364
0.1818
0.2273
0.2727
0.3182
0.3636
0.4091
0.4545
0.5
0.5455
0.5909
0.6364
0.6818
0.7273
0.7727
0.8182
0.8636
0.9091
0.9545
1
0.9545
0.9091
0.8636
0.8182
0.7727
0.7273
0.6818
0.6364
0.5909
0.5455
0.5
0.4545
0.4091
0.3636
0.3182
0.2727
0.2273
0.1818
0.1364
0.0909
0.0455
0

shape_id 37
num_samples 45
0
0.0455
0.0909
0.1364
0.1818
0.2273
0.2727
0.3182
0.3636
0.4091
0.4545
0.5
0.5455
0.5909
0.6364
0.6818
0.7273
0.7727
0.8182
0.8636
0.9091
0.9545
1
0.9545
0.9091
0.8636
0.8182
0.7727
0.7273
0.6818
0.6364
0.5909
0.5455
0.5
0.4545
0.4091
0.3636
0.3182
0.2727
0.2273
0.1818
0.1364
0.0909
0.0455
0

shape_id 38
num_samples 45
0
0.0455
0.0909
0.1364
0.1818
0.2273
0.2727
0.3182
0.3636
0.4091
0.4545
0.5
0.5455
0.5909
0.6364
0.6818
0.7273
0.7727
0.8182
0.8636
0.9091
0.9545
1
0.9545
0.9091
0.8636
0.8182
0.7727
0.7273
0.6818
0.6364
0.5909
0.5455
0.5
0.4545
0.4091
0.3636
0.3182
0.2727
0.2273
0.1818
0.1364
0.0909
0.0455
0

shape_id 39
num_samples 45
0
0.0455
0.0909
0.1364
0.1818
0.2273
0.2727
0.3182
0.3636
0.4091
0.4545
0.5
0.5455
0.5909
0.6364
0.6818
0.7273
0.7727
0.8182
0.8636
0.9091
0.9545
1
0.9545
0.9091
0.8636
0.8182
0.7727
0.7273
0.6818
0.6364
0.5909
0.5455
0.5
0.4545
0.4091
0.3636
0.3182
0.2727
0.2273
0.1818
0.1364
0.0909
0.0455
0

shape_id 40
num_samples 45
0
0.0455
0.0909
0.1364
0.1818
0.2273
0.2727
0.3182
0.3636
0.4091
0.4545
0.5
0.5455
0.5909
0.6364
0.6818
0.7273
0.7727
0.8182
0.8636
0.9091
0.9545
1
0.9545
0.9091
0.8636
0.8182
0.7727
0.7273
0.6818
0.6364
0.5909
0.5455
0.5
0.4545
0.4091
0.3636
0.3182
0.2727
0.2273
0.1818
0.1364
0.0909
0.0455
0

shape_id 41
num_samples 45
0
0.0455
0.0909
0.1364
0.1818
0.2273
0.2727
0.3182
0.3636
0.4091
0.4545
0.5
0.5455
0.5909
0.6364
0.6818
0.7273
0.7727
0.8182
0.8636
0.9091
0.9545
1
0.9545
0.9091
0.8636
0.8182
0.7727
0.7273
0.6818
0.6364
0.5909
0.5455
0.5
0.4545
0.4091
0.3636
0.3182
0.2727
0.2273
0.1818
0.1364
