# Pulseq sequence file
# Created by PyPulseq

[VERSION]
major 1
minor 4
revision 0

[DEFINITIONS]
AdcRasterTime 1e-07 
BlockDurationRaster 1e-05 
FOV 0.3 0.3 0.005 
GradientRasterTime 1e-05 
Name YARRA 
RadiofrequencyRasterTime 1e-06 
TotalDuration 76.79744 

# Format of blocks:
# NUM DUR RF  GX  GY  GZ  ADC  EXT
[BLOCKS]
   1 275   1   0   0   1  0  0
   2  52   0   2   3   4  0  0
   3 172   0   5   5   5  0  0
   4 275   2   0   0   1  0  0
   5 130   0   6   6   6  0  0
   6 426   0   7   0   0  1  0
   7 131   0  10   8   9  0  0
   8 58537   0   0   0   0  0  0
   9 275   1   0   0   1  0  0
  10  52   0   2  11   4  0  0
  11 172   0   5   5   5  0  0
  12 275   2   0   0   1  0  0
  13 130   0   6   6   6  0  0
  14 426   0   7   0   0  1  0
  15 131   0  10  12   9  0  0
  16 58537   0   0   0   0  0  0
  17 275   1   0   0   1  0  0
  18  52   0   2  13   4  0  0
  19 172   0   5   5   5  0  0
  20 275   2   0   0   1  0  0
  21 130   0   6   6   6  0  0
  22 426   0   7   0   0  1  0
  23 131   0  10  14   9  0  0
  24 58537   0   0   0   0  0  0
  25 275   1   0   0   1  0  0
  26  52   0   2  15   4  0  0
  27 172   0   5   5   5  0  0
  28 275   2   0   0   1  0  0
  29 130   0   6   6   6  0  0
  30 426   0   7   0   0  1  0
  31 131   0  10  16   9  0  0
  32 58537   0   0   0   0  0  0
  33 275   1   0   0   1  0  0
  34  52   0   2  17   4  0  0
  35 172   0   5   5   5  0  0
  36 275   2   0   0   1  0  0
  37 130   0   6   6   6  0  0
  38 426   0   7   0   0  1  0
  39 131   0  10  18   9  0  0
  40 58537   0   0   0   0  0  0
  41 275   1   0   0   1  0  0
  42  52   0   2  19   4  0  0
  43 172   0   5   5   5  0  0
  44 275   2   0   0   1  0  0
  45 130   0   6   6   6  0  0
  46 426   0   7   0   0  1  0
  47 131   0  10  20   9  0  0
  48 58537   0   0   0   0  0  0
  49 275   1   0   0   1  0  0
  50  52   0   2  21   4  0  0
  51 172   0   5   5   5  0  0
  52 275   2   0   0   1  0  0
  53 130   0   6   6   6  0  0
  54 426   0   7   0   0  1  0
  55 131   0  10  22   9  0  0
  56 58537   0   0   0   0  0  0
  57 275   1   0   0   1  0  0
  58  52   0   2  23   4  0  0
  59 172   0   5   5   5  0  0
  60 275   2   0   0   1  0  0
  61 130   0   6   6   6  0  0
  62 426   0   7   0   0  1  0
  63 131   0  10  24   9  0  0
  64 58537   0   0   0   0  0  0
  65 275   1   0   0   1  0  0
  66  52   0   2  25   4  0  0
  67 172   0   5   5   5  0  0
  68 275   2   0   0   1  0  0
  69 130   0   6   6   6  0  0
  70 426   0   7   0   0  1  0
  71 131   0  10  26   9  0  0
  72 58537   0   0   0   0  0  0
  73 275   1   0   0   1  0  0
  74  52   0   2  27   4  0  0
  75 172   0   5   5   5  0  0
  76 275   2   0   0   1  0  0
  77 130   0   6   6   6  0  0
  78 426   0   7   0   0  1  0
  79 131   0  10  28   9  0  0
  80 58537   0   0   0   0  0  0
  81 275   1   0   0   1  0  0
  82  52   0   2  29   4  0  0
  83 172   0   5   5   5  0  0
  84 275   2   0   0   1  0  0
  85 130   0   6   6   6  0  0
  86 426   0   7   0   0  1  0
  87 131   0  10  30   9  0  0
  88 58537   0   0   0   0  0  0
  89 275   1   0   0   1  0  0
  90  52   0   2  31   4  0  0
  91 172   0   5   5   5  0  0
  92 275   2   0   0   1  0  0
  93 130   0   6   6   6  0  0
  94 426   0   7   0   0  1  0
  95 131   0  10  32   9  0  0
  96 58537   0   0   0   0  0  0
  97 275   1   0   0   1  0  0
  98  52   0   2  33   4  0  0
  99 172   0   5   5   5  0  0
 100 275   2   0   0   1  0  0
 101 130   0   6   6   6  0  0
 102 426   0   7   0   0  1  0
 103 131   0  10  34   9  0  0
 104 58537   0   0   0   0  0  0
 105 275   1   0   0   1  0  0
 106  52   0   2  35   4  0  0
 107 172   0   5   5   5  0  0
 108 275   2   0   0   1  0  0
 109 130   0   6   6   6  0  0
 110 426   0   7   0   0  1  0
 111 131   0  10  36   9  0  0
 112 58537   0   0   0   0  0  0
 113 275   1   0   0   1  0  0
 114  52   0   2  37   4  0  0
 115 172   0   5   5   5  0  0
 116 275   2   0   0   1  0  0
 117 130   0   6   6   6  0  0
 118 426   0   7   0   0  1  0
 119 131   0  10  38   9  0  0
 120 58537   0   0   0   0  0  0
 121 275   1   0   0   1  0  0
 122  52   0   2  39   4  0  0
 123 172   0   5   5   5  0  0
 124 275   2   0   0   1  0  0
 125 130   0   6   6   6  0  0
 126 426   0   7   0   0  1  0
 127 131   0  10  40   9  0  0
 128 58537   0   0   0   0  0  0
 129 275   1   0   0   1  0  0
 130  52   0   2  41   4  0  0
 131 172   0   5   5   5  0  0
 132 275   2   0   0   1  0  0
 133 130   0   6   6   6  0  0
 134 426   0   7   0   0  1  0
 135 131   0  10  42   9  0  0
 136 58537   0   0   0   0  0  0
 137 275   1   0   0   1  0  0
 138  52   0   2  43   4  0  0
 139 172   0   5   5   5  0  0
 140 275   2   0   0   1  0  0
 141 130   0   6   6   6  0  0
 142 426   0   7   0   0  1  0
 143 131   0  10  44   9  0  0
 144 58537   0   0   0   0  0  0
 145 275   1   0   0   1  0  0
 146  52   0   2  45   4  0  0
 147 172   0   5   5   5  0  0
 148 275   2   0   0   1  0  0
 149 130   0   6   6   6  0  0
 150 426   0   7   0   0  1  0
 151 131   0  10  46   9  0  0
 152 58537   0   0   0   0  0  0
 153 275   1   0   0   1  0  0
 154  52   0   2  47   4  0  0
 155 172   0   5   5   5  0  0
 156 275   2   0   0   1  0  0
 157 130   0   6   6   6  0  0
 158 426   0   7   0   0  1  0
 159 131   0  10  48   9  0  0
 160 58537   0   0   0   0  0  0
 161 275   1   0   0   1  0  0
 162  52   0   2  49   4  0  0
 163 172   0   5   5   5  0  0
 164 275   2   0   0   1  0  0
 165 130   0   6   6   6  0  0
 166 426   0   7   0   0  1  0
 167 131   0  10  50   9  0  0
 168 58537   0   0   0   0  0  0
 169 275   1   0   0   1  0  0
 170  52   0   2  51   4  0  0
 171 172   0   5   5   5  0  0
 172 275   2   0   0   1  0  0
 173 130   0   6   6   6  0  0
 174 426   0   7   0   0  1  0
 175 131   0  10  52   9  0  0
 176 58537   0   0   0   0  0  0
 177 275   1   0   0   1  0  0
 178  52   0   2  53   4  0  0
 179 172   0   5   5   5  0  0
 180 275   2   0   0   1  0  0
 181 130   0   6   6   6  0  0
 182 426   0   7   0   0  1  0
 183 131   0  10  54   9  0  0
 184 58537   0   0   0   0  0  0
 185 275   1   0   0   1  0  0
 186  52   0   2  55   4  0  0
 187 172   0   5   5   5  0  0
 188 275   2   0   0   1  0  0
 189 130   0   6   6   6  0  0
 190 426   0   7   0   0  1  0
 191 131   0  10  56   9  0  0
 192 58537   0   0   0   0  0  0
 193 275   1   0   0   1  0  0
 194  52   0   2  57   4  0  0
 195 172   0   5   5   5  0  0
 196 275   2   0   0   1  0  0
 197 130   0   6   6   6  0  0
 198 426   0   7   0   0  1  0
 199 131   0  10  58   9  0  0
 200 58537   0   0   0   0  0  0
 201 275   1   0   0   1  0  0
 202  52   0   2  59   4  0  0
 203 172   0   5   5   5  0  0
 204 275   2   0   0   1  0  0
 205 130   0   6   6   6  0  0
 206 426   0   7   0   0  1  0
 207 131   0  10  60   9  0  0
 208 58537   0   0   0   0  0  0
 209 275   1   0   0   1  0  0
 210  52   0   2  61   4  0  0
 211 172   0   5   5   5  0  0
 212 275   2   0   0   1  0  0
 213 130   0   6   6   6  0  0
 214 426   0   7   0   0  1  0
 215 131   0  10  62   9  0  0
 216 58537   0   0   0   0  0  0
 217 275   1   0   0   1  0  0
 218  52   0   2  63   4  0  0
 219 172   0   5   5   5  0  0
 220 275   2   0   0   1  0  0
 221 130   0   6   6   6  0  0
 222 426   0   7   0   0  1  0
 223 131   0  10  64   9  0  0
 224 58537   0   0   0   0  0  0
 225 275   1   0   0   1  0  0
 226  52   0   2  65   4  0  0
 227 172   0   5   5   5  0  0
 228 275   2   0   0   1  0  0
 229 130   0   6   6   6  0  0
 230 426   0   7   0   0  1  0
 231 131   0  10  66   9  0  0
 232 58537   0   0   0   0  0  0
 233 275   1   0   0   1  0  0
 234  52   0   2  67   4  0  0
 235 172   0   5   5   5  0  0
 236 275   2   0   0   1  0  0
 237 130   0   6   6   6  0  0
 238 426   0   7   0   0  1  0
 239 131   0  10  68   9  0  0
 240 58537   0   0   0   0  0  0
 241 275   1   0   0   1  0  0
 242  52   0   2  69   4  0  0
 243 172   0   5   5   5  0  0
 244 275   2   0   0   1  0  0
 245 130   0   6   6   6  0  0
 246 426   0   7   0   0  1  0
 247 131   0  10  70   9  0  0
 248 58537   0   0   0   0  0  0
 249 275   1   0   0   1  0  0
 250  52   0   2  71   4  0  0
 251 172   0   5   5   5  0  0
 252 275   2   0   0   1  0  0
 253 130   0   6   6   6  0  0
 254 426   0   7   0   0  1  0
 255 131   0  10  72   9  0  0
 256 58537   0   0   0   0  0  0
 257 275   1   0   0   1  0  0
 258  52   0   2  73   4  0  0
 259 172   0   5   5   5  0  0
 260 275   2   0   0   1  0  0
 261 130   0   6   6   6  0  0
 262 426   0   7   0   0  1  0
 263 131   0  10  74   9  0  0
 264 58537   0   0   0   0  0  0
 265 275   1   0   0   1  0  0
 266  52   0   2  75   4  0  0
 267 172   0   5   5   5  0  0
 268 275   2   0   0   1  0  0
 269 130   0   6   6   6  0  0
 270 426   0   7   0   0  1  0
 271 131   0  10  76   9  0  0
 272 58537   0   0   0   0  0  0
 273 275   1   0   0   1  0  0
 274  52   0   2  77   4  0  0
 275 172   0   5   5   5  0  0
 276 275   2   0   0   1  0  0
 277 130   0   6   6   6  0  0
 278 426   0   7   0   0  1  0
 279 131   0  10  78   9  0  0
 280 58537   0   0   0   0  0  0
 281 275   1   0   0   1  0  0
 282  52   0   2  79   4  0  0
 283 172   0   5   5   5  0  0
 284 275   2   0   0   1  0  0
 285 130   0   6   6   6  0  0
 286 426   0   7   0   0  1  0
 287 131   0  10  80   9  0  0
 288 58537   0   0   0   0  0  0
 289 275   1   0   0   1  0  0
 290  52   0   2  81   4  0  0
 291 172   0   5   5   5  0  0
 292 275   2   0   0   1  0  0
 293 130   0   6   6   6  0  0
 294 426   0   7   0   0  1  0
 295 131   0  10  82   9  0  0
 296 58537   0   0   0   0  0  0
 297 275   1   0   0   1  0  0
 298  52   0   2  83   4  0  0
 299 172   0   5   5   5  0  0
[RF]
1       342.29 2 3 4 100 0 0
2      895.738 9 3 4 100 0 0

# Format of arbitrary gradients:
#   time_shape_id of 0 means default timing (stepping with grad_raster starting at 1/2 of grad_raster)
# id amplitude amp_shape_id time_shape_id delay
# ..      Hz/m       ..         ..          us
[GRADIENTS]
1       210756 1 0 0
2      -934991 5 0 0
3      -927706 6 0 0
4      -934565 7 0 0
5       930307 8 0 420
6       930307 8 0 0
7      -111126 10 0 370
8      -927706 6 0 10
9      -934565 7 0 10
10      -930307 8 0 10
11      -913323 11 0 0
12      -913323 11 0 10
13      -898940 12 0 0
14      -898940 12 0 10
15      -884557 13 0 0
16      -884557 13 0 10
17      -870174 14 0 0
18      -870174 14 0 10
19      -855791 15 0 0
20      -855791 15 0 10
21      -841408 11 0 0
22      -841408 11 0 10
23      -827025 16 0 0
24      -827025 16 0 10
25      -812642 17 0 0
26      -812642 17 0 10
27      -798259 18 0 0
28      -798259 18 0 10
29      -783876 11 0 0
30      -783876 11 0 10
31      -769493 19 0 0
32      -769493 19 0 10
33      -755110 20 0 0
34      -755110 20 0 10
35      -740727 21 0 0
36      -740727 21 0 10
37      -726344 22 0 0
38      -726344 22 0 10
39      -711961 23 0 0
40      -711961 23 0 10
41      -697578 24 0 0
42      -697578 24 0 10
43      -683195 25 0 0
44      -683195 25 0 10
45      -668811 26 0 0
46      -668811 26 0 10
47      -654428 27 0 0
48      -654428 27 0 10
49      -640045 28 0 0
50      -640045 28 0 10
51      -625662 29 0 0
52      -625662 29 0 10
53      -611279 30 0 0
54      -611279 30 0 10
55      -596896 31 0 0
56      -596896 31 0 10
57      -582513 32 0 0
58      -582513 32 0 10
59      -568130 33 0 0
60      -568130 33 0 10
61      -553747 11 0 0
62      -553747 11 0 10
63      -539364 11 0 0
64      -539364 11 0 10
65      -524981 11 0 0
66      -524981 11 0 10
67      -510598 11 0 0
68      -510598 11 0 10
69      -496215 11 0 0
70      -496215 11 0 10
71      -481832 34 0 0
72      -481832 34 0 10
73      -467449 35 0 0
74      -467449 35 0 10
75      -453066 36 0 0
76      -453066 36 0 10
77      -438683 37 0 0
78      -438683 37 0 10
79      -424300 33 0 0
80      -424300 33 0 10
81      -409917 38 0 0
82      -409917 38 0 10
83      -395534 39 0 0
84      -395534 39 0 10
85      -381151 21 0 0
86      -381151 21 0 10
87      -366768 40 0 0
88      -366768 40 0 10
89      -352385 41 0 0
90      -352385 41 0 10
91      -338002 35 0 0
92      -338002 35 0 10
93      -323618 42 0 0
94      -323618 42 0 10
95      -309235 43 0 0
96      -309235 43 0 10
97      -294852 13 0 0
98      -294852 13 0 10
99      -280469 11 0 0
100      -280469 11 0 10
101      -266086 11 0 0
102      -266086 11 0 10
103      -251703 44 0 0
104      -251703 44 0 10
105      -237320 23 0 0
106      -237320 23 0 10
107      -222937 27 0 0
108      -222937 27 0 10
109      -208554 45 0 0
110      -208554 45 0 10
111      -194171 46 0 0
112      -194171 46 0 10
113      -179788 47 0 0
114      -179788 47 0 10
115      -165405 28 0 0
116      -165405 28 0 10
117      -151022 32 0 0
118      -151022 32 0 10
119      -136639 11 0 0
120      -136639 11 0 10
121      -122256 12 0 0
122      -122256 12 0 10
123      -107873 48 0 0
124      -107873 48 0 10
125     -93489.8 49 0 0
126     -93489.8 49 0 10
127     -79106.7 50 0 0
128     -79106.7 50 0 10
129     -64723.7 11 0 0
130     -64723.7 11 0 10
131     -50340.6 51 0 0
132     -50340.6 51 0 10
133     -35957.6 52 0 0
134     -35957.6 52 0 10
135     -21574.6 53 0 0
136     -21574.6 53 0 10
137     -7191.52 11 0 0
138     -7191.52 11 0 10
139      7191.52 11 0 0
140      7191.52 11 0 10
141      21574.6 53 0 0
142      21574.6 53 0 10
143      35957.6 52 0 0
144      35957.6 52 0 10
145      50340.6 51 0 0
146      50340.6 51 0 10
147      64723.7 11 0 0
148      64723.7 11 0 10
149      79106.7 50 0 0
150      79106.7 50 0 10
151      93489.8 49 0 0
152      93489.8 49 0 10
153       107873 48 0 0
154       107873 48 0 10
155       122256 12 0 0
156       122256 12 0 10
157       136639 11 0 0
158       136639 11 0 10
159       151022 32 0 0
160       151022 32 0 10
161       165405 28 0 0
162       165405 28 0 10
163       179788 47 0 0
164       179788 47 0 10
165       194171 46 0 0
166       194171 46 0 10
167       208554 45 0 0
168       208554 45 0 10
169       222937 27 0 0
170       222937 27 0 10
171       237320 23 0 0
172       237320 23 0 10
173       251703 44 0 0
174       251703 44 0 10
175       266086 11 0 0
176       266086 11 0 10
177       280469 11 0 0
178       280469 11 0 10
179       294852 13 0 0
180       294852 13 0 10
181       309235 43 0 0
182       309235 43 0 10
183       323618 42 0 0
184       323618 42 0 10
185       338002 35 0 0
186       338002 35 0 10
187       352385 41 0 0
188       352385 41 0 10
189       366768 40 0 0
190       366768 40 0 10
191       381151 21 0 0
192       381151 21 0 10
193       395534 39 0 0
194       395534 39 0 10
195       409917 38 0 0
196       409917 38 0 10
197       424300 33 0 0
198       424300 33 0 10
199       438683 37 0 0
200       438683 37 0 10
201       453066 36 0 0
202       453066 36 0 10
203       467449 35 0 0
204       467449 35 0 10
205       481832 34 0 0
206       481832 34 0 10
207       496215 11 0 0
208       496215 11 0 10
209       510598 11 0 0
210       510598 11 0 10
211       524981 11 0 0
212       524981 11 0 10
213       539364 11 0 0
214       539364 11 0 10
215       553747 11 0 0
216       553747 11 0 10
217       568130 33 0 0
218       568130 33 0 10
219       582513 32 0 0
220       582513 32 0 10
221       596896 31 0 0
222       596896 31 0 10
223       611279 30 0 0
224       611279 30 0 10
225       625662 29 0 0
226       625662 29 0 10
227       640045 28 0 0
228       640045 28 0 10
229       654428 27 0 0
230       654428 27 0 10
231       668811 26 0 0
232       668811 26 0 10
233       683195 25 0 0
234       683195 25 0 10
235       697578 24 0 0
236       697578 24 0 10
237       711961 23 0 0
238       711961 23 0 10
239       726344 22 0 0
240       726344 22 0 10
241       740727 21 0 0
242       740727 21 0 10
243       755110 20 0 0
244       755110 20 0 10
245       769493 19 0 0
246       769493 19 0 10
247       783876 11 0 0
248       783876 11 0 10
249       798259 18 0 0
250       798259 18 0 10
251       812642 17 0 0
252       812642 17 0 10
253       827025 16 0 0
254       827025 16 0 10
255       841408 11 0 0
256       841408 11 0 10
257       855791 15 0 0
258       855791 15 0 10
259       870174 14 0 0
260       870174 14 0 10
261       884557 13 0 0
262       884557 13 0 10
263       898940 12 0 0
264       898940 12 0 10

# Format of ADC events:
# id num dwell delay freq phase
# ..  ..    ns    us   Hz   rad
[ADC]
1 256 15000 400 0 0

# Sequence Shapes
[SHAPES]

shape_id 1
num_samples 275
0
0.1
0.1
8
0
0
252
-0.1
-0.1
8

shape_id 2
num_samples 128
3.11854168e-18
0.00127709713
0.00263619803
0.00412096129
0.00577427533
0.00763644759
0.00974335716
0.0121246124
0.0148017555
0.0177865559
0.0210794356
0.0246680655
0.0285261709
0.0326125821
0.0368705593
0.0412274199
0.0455944881
0.049867383
0.0539266529
0.0576387606
0.060857414
0.0634252303
0.0651757189
0.0659355557
0.0655271198
0.0637712562
0.0604902216
0.0555107692
0.0486673194
0.0398051656
0.028783659
0.0154793152
0.00021121304
0.018368353
0.0390470728
0.0622746373
0.0880487054
0.116335811
0.147070264
0.180153504
0.215453928
0.252807202
0.292017081
0.332856714
0.375070447
0.418376095
0.462467653
0.507018435
0.551684572
0.596108847
0.639924798
0.682761038
0.72424573
0.764011151
0.801698272
0.836961294
0.869472065
0.898924318
0.925037648
0.947561196
0.96627695
0.981002636
0.991594142
0.997947446
1
0.997731574
0.991164526
0.9803635
0.965434562
0.946523782
0.923815282
0.897528787
0.867916719
0.835260863
0.799868678
0.762069301
0.722209299
0.680648243
0.637754172
0.593899008
0.549453996
0.504785237
0.460249377
0.416189514
0.372931381
0.330779861
0.290015875
0.250893686
0.213638654
0.178445456
0.145476804
0.114862652
0.08669991
0.0610526363
0.0379527113
0.0174009566
0.000631326021
0.0162004336
0.0293880021
0.0402984533
0.0490562018
0.0558026742
0.0606931964
0.0638938077
0.0655780545
0.0659238229
0.0651102599
0.0633148353
0.06071059
0.0574636108
0.0537307703
0.0496577599
0.0453774413
0.0410085329
0.0366546428
0.0324036509
0.028327439
0.0244819565
0.0209076103
0.017629953
0.0146606458
0.0119986645
0.00963171233
0.00753780233
0.00568696944
0.00404306915
0.00256562126
0.00121165629

shape_id 3
num_samples 128
0
0
126

shape_id 4
num_samples 128
10
20
20
125

shape_id 5
num_samples 45
0
0.0455
0.0909
0.1364
0.1818
0.2273
0.2727
0.3182
0.3636
0.4091
0.4545
0.5
0.5455
0.5909
0.6364
0.6818
0.7273
0.7727
0.8182
0.8636
0.9091
0.9545
1
0.9545
0.9091
0.8636
0.8182
0.7727
0.7273
0.6818
0.6364
0.5909
0.5455
0.5
0.4545
0.4091
0.3636
0.3182
0.2727
0.2273
0.1818
0.1364
0.0909
0.0455
0

shape_id 6
num_samples 45
0
0.0455
0.0909
0.1364
0.1818
0.2273
0.2727
0.3182
0.3636
0.4091
0.4545
0.5
0.5455
0.5909
0.6364
0.6818
0.7273
0.7727
0.8182
0.8636
0.9091
0.9545
1
0.9545
0.9091
0.8636
0.8182
0.7727
0.7273
0.6818
0.6364
0.5909
0.5455
0.5
0.4545
0.4091
0.3636
0.3182
0.2727
0.2273
0.1818
0.1364
0.0909
0.0455
0

shape_id 7
num_samples 52
0
0.0455
0.0454
0.0455
0.0454
0.0455
0.0454
0.0455
0.0454
0.0455
0.0454
0.0455
0.0455
0
0.0454
0.0455
0.0454
0.0455
0.0454
0.0455
0.0454
0.0455
0.0454
0.0455
0
0
5
-0.0455
-0.0454
-0.0455
-0.0454
-0.0455
-0.0454
-0.0455
-0.0454
-0.0455
-0.0454
-0.0455
-0.0455
0
-0.0454
-0.0455
-0.0454
-0.0455
-0.0454
-0.0455
-0.0454
-0.0455
-0.0454
-0.0455

shape_id 8
num_samples 130
0
0.0455
0.0454
0.0455
0.0454
0.0455
0.0454
0.0455
0.0454
0.0455
0.0454
0.0455
0.0455
0
0.0454
0.0455
0.0454
0.0455
0.0454
0.0455
0.0454
0.0455
0.0454
0.0455
0
0
83
-0.0455
-0.0454
-0.0455
-0.0454
-0.0455
-0.0454
-0.0455
-0.0454
-0.0455
-0.0454
-0.0455
-0.0455
0
-0.0454
-0.0455
-0.0454
-0.0455
-0.0454
-0.0455
-0.0454
-0.0455
-0.0454
-0.0455

shape_id 9
num_samples 128
3.1185456e-18
0.00127453224
0.0026150076
0.00404640679
0.0055884941
0.00725237491
0.00903728027
0.0109277615
0.0128914678
0.0148776647
0.0168166252
0.0186199974
0.0201822153
0.0213829799
0.0220907953
0.0221674984
0.0214736797
0.0198748468
0.0172481479
0.0134894341
0.00852041722
0.00229565689
0.00519089805
0.0139000901
0.023742723
0.0345759706
0.0462012445
0.0583637034
0.0707535436
0.0830091543
0.0947221685
0.105444376
0.114696404
0.121978009
0.126779769
0.128595897
0.126937869
0.1213485
0.111416086
0.0967882054
0.0771847626
0.0524098749
0.0223622072
0.0129565993
0.0534357194
0.0988514183
0.148866006
0.2030296
0.260784746
0.321473868
0.38434945
0.448586739
0.513298736
0.577553122
0.640390732
0.700845146
0.757962904
0.810823845
0.858561053
0.900379903
0.935575706
0.963549496
0.983821539
0.99604222
1
0.995626245
0.982996799
0.962330246
0.933982923
0.898440804
0.856308484
0.808295543
0.75520065
0.697893847
0.637297438
0.574366015
0.510066114
0.445356014
0.381166195
0.318380934
0.257821457
0.200231067
0.146262552
0.0964681428
0.0512921975
0.0110667268
0.0239902278
0.0537734105
0.0782864957
0.0976357634
0.112021567
0.121727911
0.1271105
0.128583644
0.126606432
0.121668583
0.114276384
0.104939095
0.0941561817
0.0824056914
0.0701340342
0.0577473882
0.0456048779
0.0340136183
0.0232256533
0.0134367573
0.0047870115
0.00263698648
0.00879846349
0.0137055855
0.0174055954
0.019978243
0.0215287824
0.0221808135
0.0220692302
0.0213335208
0.0201116368
0.018534614
0.01672209
0.0147788202
0.0127922499
0.0108311567
0.0089453338
0.0071662449
0.00550854641
0.00397234278
0.00254601672
0.00120946025

shape_id 10
num_samples 389
0
0.3333
0.3334
0.3333
0
0
380
-0.3333
-0.3334
-0.3333

shape_id 11
num_samples 45
0
0.0455
0.0909
0.1364
0.1818
0.2273
0.2727
0.3182
0.3636
0.4091
0.4545
0.5
0.5455
0.5909
0.6364
0.6818
0.7273
0.7727
0.8182
0.8636
0.9091
0.9545
1
0.9545
0.9091
0.8636
0.8182
0.7727
0.7273
0.6818
0.6364
0.5909
0.5455
0.5
0.4545
0.4091
0.3636
0.3182
0.2727
0.2273
0.1818
0.1364
0.0909
0.0455
0

shape_id 12
num_samples 45
0
0.0455
0.0909
0.1364
0.1818
0.2273
0.2727
0.3182
0.3636
0.4091
0.4545
0.5
0.5455
0.5909
0.6364
0.6818
0.7273
0.7727
0.8182
0.8636
0.9091
0.9545
1
0.9545
0.9091
0.8636
0.8182
0.7727
0.7273
0.6818
0.6364
0.5909
0.5455
0.5
0.4545
0.4091
0.3636
0.3182
0.2727
0.2273
0.1818
0.1364
0.0909
0.0455
0

shape_id 13
num_samples 45
0
0.0455
0.0909
0.1364
0.1818
0.2273
0.2727
0.3182
0.3636
0.4091
0.4545
0.5
0.5455
0.5909
0.6364
0.6818
0.7273
0.7727
0.8182
0.8636
0.9091
0.9545
1
0.9545
0.9091
0.8636
0.8182
0.7727
0.7273
0.6818
0.6364
0.5909
0.5455
0.5
0.4545
0.4091
0.3636
0.3182
0.2727
0.2273
0.1818
0.1364
0.0909
0.0455
0

shape_id 14
num_samples 45
0
0.0455
0.0909
0.1364
0.1818
0.2273
0.2727
0.3182
0.3636
0.4091
0.4545
0.5
0.5455
0.5909
0.6364
0.6818
0.7273
0.7727
0.8182
0.8636
0.9091
0.9545
1
0.9545
0.9091
0.8636
0.8182
0.7727
0.7273
0.6818
0.6364
0.5909
0.5455
0.5
0.4545
0.4091
0.3636
0.3182
0.2727
0.2273
0.1818
0.1364
0.0909
0.0455
0

shape_id 15
num_samples 45
0
0.0455
0.0909
0.1364
0.1818
0.2273
0.2727
0.3182
0.3636
0.4091
0.4545
0.5
0.5455
0.5909
0.6364
0.6818
0.7273
0.7727
0.8182
0.8636
0.9091
0.9545
1
0.9545
0.9091
0.8636
0.8182
0.7727
0.7273
0.6818
0.6364
0.5909
0.5455
0.5
0.4545
0.4091
0.3636
0.3182
0.2727
0.2273
0.1818
0.1364
0.0909
0.0455
0

shape_id 16
num_samples 45
0
0.0455
0.0909
0.1364
0.1818
0.2273
0.2727
0.3182
0.3636
0.4091
0.4545
0.5
0.5455
0.5909
0.6364
0.6818
0.7273
0.7727
0.8182
0.8636
0.9091
0.9545
1
0.9545
0.9091
0.8636
0.8182
0.7727
0.7273
0.6818
0.6364
0.5909
0.5455
0.5
0.4545
0.4091
0.3636
0.3182
0.2727
0.2273
0.1818
0.1364
0.0909
0.0455
0

shape_id 17
num_samples 45
0
0.0455
0.0909
0.1364
0.1818
0.2273
0.2727
0.3182
0.3636
0.4091
0.4545
0.5
0.5455
0.5909
0.6364
0.6818
0.7273
0.7727
0.8182
0.8636
0.9091
0.9545
1
0.9545
0.9091
0.8636
0.8182
0.7727
0.7273
0.6818
0.6364
0.5909
0.5455
0.5
0.4545
0.4091
0.3636
0.3182
0.2727
0.2273
0.1818
0.1364
0.0909
0.0455
0

shape_id 18
num_samples 45
0
0.0455
0.0909
0.1364
0.1818
0.2273
0.2727
0.3182
0.3636
0.4091
0.4545
0.5
0.5455
0.5909
0.6364
0.6818
0.7273
0.7727
0.8182
0.8636
0.9091
0.9545
1
0.9545
0.9091
0.8636
0.8182
0.7727
0.7273
0.6818
0.6364
0.5909
0.5455
0.5
0.4545
0.4091
0.3636
0.3182
0.2727
0.2273
0.1818
0.1364
0.0909
0.0455
0

shape_id 19
num_samples 45
0
0.0455
0.0909
0.1364
0.1818
0.2273
0.2727
0.3182
0.3636
0.4091
0.4545
0.5
0.5455
0.5909
0.6364
0.6818
0.7273
0.7727
0.8182
0.8636
0.9091
0.9545
1
0.9545
0.9091
0.8636
0.8182
0.7727
0.7273
0.6818
0.6364
0.5909
0.5455
0.5
0.4545
0.4091
0.3636
0.3182
0.2727
0.2273
0.1818
0.1364
0.0909
0.0455
0

shape_id 20
num_samples 45
0
0.0455
0.0909
0.1364
0.1818
0.2273
0.2727
0.3182
0.3636
0.4091
0.4545
0.5
0.5455
0.5909
0.6364
0.6818
0.7273
0.7727
0.8182
0.8636
0.9091
0.9545
1
0.9545
0.9091
0.8636
0.8182
0.7727
0.7273
0.6818
0.6364
0.5909
0.5455
0.5
0.4545
0.4091
0.3636
0.3182
0.2727
0.2273
0.1818
0.1364
0.0909
0.0455
0

shape_id 21
num_samples 45
0
0.0455
0.0909
0.1364
0.1818
0.2273
0.2727
0.3182
0.3636
0.4091
0.4545
0.5
0.5455
0.5909
0.6364
0.6818
0.7273
0.7727
0.8182
0.8636
0.9091
0.9545
1
0.9545
0.9091
0.8636
0.8182
0.7727
0.7273
0.6818
0.6364
0.5909
0.5455
0.5
0.4545
0.4091
0.3636
0.3182
0.2727
0.2273
0.1818
0.1364
0.0909
0.0455
0

shape_id 22
num_samples 45
0
0.0455
0.0909
0.1364
0.1818
0.2273
0.2727
0.3182
0.3636
0.4091
0.4545
0.5
0.5455
0.5909
0.6364
0.6818
0.7273
0.7727
0.8182
0.8636
0.9091
0.9545
1
0.9545
0.9091
0.8636
0.8182
0.7727
0.7273
0.6818
0.6364
0.5909
0.5455
0.5
0.4545
0.4091
0.3636
0.3182
0.2727
0.2273
0.1818
0.1364
0.0909
0.0455
0

shape_id 23
num_samples 45
0
0.0455
0.0909
0.1364
0.1818
0.2273
0.2727
0.3182
0.3636
0.4091
0.4545
0.5
0.5455
0.5909
0.6364
0.6818
0.7273
0.7727
0.8182
0.8636
0.9091
0.9545
1
0.9545
0.9091
0.8636
0.8182
0.7727
0.7273
0.6818
0.6364
0.5909
0.5455
0.5
0.4545
0.4091
0.3636
0.3182
0.2727
0.2273
0.1818
0.1364
0.0909
0.0455
0

shape_id 24
num_samples 45
0
0.0455
0.0909
0.1364
0.1818
0.2273
0.2727
0.3182
0.3636
0.4091
0.4545
0.5
0.5455
0.5909
0.6364
0.6818
0.7273
0.7727
0.8182
0.8636
0.9091
0.9545
1
0.9545
0.9091
0.8636
0.8182
0.7727
0.7273
0.6818
0.6364
0.5909
0.5455
0.5
0.4545
0.4091
0.3636
0.3182
0.2727
0.2273
0.1818
0.1364
0.0909
0.0455
0

shape_id 25
num_samples 45
0
0.0455
0.0909
0.1364
0.1818
0.2273
0.2727
0.3182
0.3636
0.4091
0.4545
0.5
0.5455
0.5909
0.6364
0.6818
0.7273
0.7727
0.8182
0.8636
0.9091
0.9545
1
0.9545
0.9091
0.8636
0.8182
0.7727
0.7273
0.6818
0.6364
0.5909
0.5455
0.5
0.4545
0.4091
0.3636
0.3182
0.2727
0.2273
0.1818
0.1364
0.0909
0.0455
0

shape_id 26
num_samples 45
0
0.0455
0.0909
0.1364
0.1818
0.2273
0.2727
0.3182
0.3636
0.4091
0.4545
0.5
0.5455
0.5909
0.6364
0.6818
0.7273
0.7727
0.8182
0.8636
0.9091
0.9545
1
0.9545
0.9091
0.8636
0.8182
0.7727
0.7273
0.6818
0.6364
0.5909
0.5455
0.5
0.4545
0.4091
0.3636
0.3182
0.2727
0.2273
0.1818
0.1364
0.0909
0.0455
0

shape_id 27
num_samples 45
0
0.0455
0.0909
0.1364
0.1818
0.2273
0.2727
0.3182
0.3636
0.4091
0.4545
0.5
0.5455
0.5909
0.6364
0.6818
0.7273
0.7727
0.8182
0.8636
0.9091
0.9545
1
0.9545
0.9091
0.8636
0.8182
0.7727
0.7273
0.6818
0.6364
0.5909
0.5455
0.5
0.4545
0.4091
0.3636
0.3182
0.2727
0.2273
0.1818
0.1364
0.0909
0.0455
0

shape_id 28
num_samples 45
0
0.0455
0.0909
0.1364
0.1818
0.2273
0.2727
0.3182
0.3636
0.4091
0.4545
0.5
0.5455
0.5909
0.6364
0.6818
0.7273
0.7727
0.8182
0.8636
0.9091
0.9545
1
0.9545
0.9091
0.8636
0.8182
0.7727
0.7273
0.6818
0.6364
0.5909
0.5455
0.5
0.4545
0.4091
0.3636
0.3182
0.2727
0.2273
0.1818
0.1364
0.0909
0.0455
0

shape_id 29
num_samples 45
0
0.0455
0.0909
0.1364
0.1818
0.2273
0.2727
0.3182
0.3636
0.4091
0.4545
0.5
0.5455
0.5909
0.6364
0.6818
0.7273
0.7727
0.8182
0.8636
0.9091
0.9545
1
0.9545
0.9091
0.8636
0.8182
0.7727
0.7273
0.6818
0.6364
0.5909
0.5455
0.5
0.4545
0.4091
0.3636
0.3182
0.2727
0.2273
0.1818
0.1364
0.0909
0.0455
0

shape_id 30
num_samples 45
0
0.0455
0.0909
0.1364
0.1818
0.2273
0.2727
0.3182
0.3636
0.4091
0.4545
0.5
0.5455
0.5909
0.6364
0.6818
0.7273
0.7727
0.8182
0.8636
0.9091
0.9545
1
0.9545
0.9091
0.8636
0.8182
0.7727
0.7273
0.6818
0.6364
0.5909
0.5455
0.5
0.4545
0.4091
0.3636
0.3182
0.2727
0.2273
0.1818
0.1364
0.0909
0.0455
0

shape_id 31
num_samples 45
0
0.0455
0.0909
0.1364
0.1818
0.2273
0.2727
0.3182
0.3636
0.4091
0.4545
0.5
0.5455
0.5909
0.6364
